EMG 1 data:
0 25.0 40.0 14.0 -23.0 -41.0 -50.0 -76.0 -91.0 -16.0 49.0 26.0 20.0 32.0 22.0 19.0 15.0 11.0 11.0 5.0 3.0 6.0 -12.0 -26.0 -28.0 -37.0 -5.0 10.0 -9.0 5.0 4.0 5.0 16.0 7.0 22.0 19.0 0.0 -3.0 -6.0 -2.0 -3.0 -4.0 -2.0 -1.0 -4.0 -21.0 -15.0 8.0 6.0 0.0 3.0 5.0 10.0 2.0 -2.0 2.0 -4.0 -2.0 3.0 6.0 8.0 -4.0 -14.0 -10.0 7.0 10.0 -16.0 -18.0 11.0 33.0 19.0 -17.0 -50.0 -49.0 -14.0 -5.0 -2.0 14.0 20.0 32.0 35.0 29.0 17.0 10.0 15.0 -1.0 -11.0 -13.0 -23.0 -19.0 -18.0 -20.0 -6.0 3.0 6.0 10.0 8.0 8.0 11.0 12.0 5.0 5.0 9.0 -1.0 3.0 8.0 -4.0 -4.0 -1.0 -8.0 -11.0 -11.0 -8.0 -14.0 -4.0 10.0 -15.0 -8.0 18.0 16.0 17.0 4.0 -15.0 -13.0 -7.0 -13.0 -13.0 0.0 0.0 -1.0 6.0 14.0 19.0 17.0 12.0 16.0 24.0 5.0 -25.0 -32.0 -32.0 -29.0 -13.0 0.0 8.0 8.0 2.0 -6.0 0.0 14.0 15.0 19.0 18.0 18.0 35.0 29.0 -8.0 -39.0 -41.0 -30.0 -15.0 0.0 2.0 28.0 39.0 -10.0 -41.0 -40.0 -25.0 1.0 12.0 25.0 18.0 5.0 17.0 3.0 -1.0 17.0 14.0 4.0 0.0 3.0 -1.0 -6.0 -3.0 -16.0 -27.0 -25.0 -11.0 8.0 8.0 6.0 8.0 4.0 7.0 6.0 3.0 2.0 -1.0 0.0 0.0 0.0 1.0 -1.0 -1.0 0.0 -2.0 -2.0 -1.0 -1.0 0.0 0.0 2.0 0.0 -3.0 0.0 1.0 0.0 0.0 1.0 1.0 0.0 -1.0 -1.0 0.0 -2.0 -4.0 -1.0 -5.0 -5.0 2.0 2.0 1.0 3.0 1.0 3.0 1.0 0.0 0.0 0.0 2.0 0.0 1.0 8.0 12.0 5.0 -2.0 0.0 5.0 12.0 4.0 -25.0 -51.0 -51.0 -18.0 5.0 6.0 16.0 17.0 13.0 15.0 10.0 8.0 9.0 6.0 6.0 3.0 0.0 0.0 2.0 2.0 3.0 1.0 -1.0 0.0 -6.0 -8.0 1.0 3.0 1.0 2.0 1.0 0.0 -2.0 0.0 3.0 0.0 -1.0 -2.0 -5.0 -3.0 0.0 -1.0 -1.0 -3.0 -2.0 -1.0 -3.0 -5.0 -7.0 0.0 4.0 0.0 0.0 0.0 0.0 -5.0 -8.0 10.0 27.0 46.0 65.0 39.0 -15.0 -53.0 -82.0 -101.0 -116.0 -78.0 6.0 53.0 48.0 40.0 54.0 38.0 26.0 31.0 -17.0 -48.0 -23.0 20.0 60.0 78.0 70.0 34.0 15.0 12.0 1.0 -35.0 -77.0 -89.0 -90.0 -55.0 -3.0 9.0 19.0 38.0 33.0 21.0 14.0 -5.0 -11.0 2.0 8.0 9.0 16.0 15.0 4.0 2.0 9.0 10.0 5.0 0.0 2.0 12.0 -5.0 -28.0 -28.0 -20.0 -4.0 -24.0 -48.0 -5.0 40.0 35.0 1.0 -39.0 -34.0 -8.0 -13.0 -7.0 -9.0 -40.0 -35.0 -5.0 35.0 59.0 57.0 66.0 47.0 17.0 15.0 15.0 -2.0 -32.0 -24.0 17.0 16.0 -2.0 -11.0 -42.0 -74.0 -65.0 -5.0 43.0 32.0 14.0 -4.0 -24.0 1.0 30.0 37.0 37.0 15.0 -5.0 -9.0 -4.0 -5.0 -3.0 10.0 -7.0 -44.0 -65.0 -50.0 5.0 24.0 14.0 32.0 24.0 11.0 13.0 0.0 2.0 3.0 -3.0 2.0 0.0 -2.0 0.0 -2.0 -3.0 -2.0 -3.0 -6.0 -3.0 -2.0 -4.0 -2.0 -2.0 -3.0 -2.0 -2.0 -2.0 0.0 0.0 0.0 0.0 1.0 1.0 2.0 2.0 -1.0 -6.0 -9.0 -2.0 8.0 7.0 6.0 11.0 17.0 28.0 38.0 20.0 -24.0 -61.0 -83.0 -61.0 -19.0 -2.0 17.0 35.0 39.0 32.0 17.0 9.0 2.0 0.0 5.0 7.0 3.0 4.0 6.0 4.0 10.0 10.0 -1.0 -2.0 -1.0 -11.0 -15.0 -8.0 2.0 3.0 5.0 10.0 0.0 -2.0 0.0 -8.0 -19.0 -17.0 -3.0 4.0 10.0 22.0 25.0 13.0 5.0 3.0 -12.0 -30.0 -16.0 -9.0 -28.0 -29.0 -34.0 -35.0 -5.0 2.0 8.0 17.0 0.0 6.0 26.0 22.0 11.0 15.0 31.0 39.0 33.0 3.0 -32.0 -48.0 -47.0 -30.0 -14.0 -6.0 12.0 28.0 36.0 49.0 51.0 38.0 14.0 -24.0 -50.0 -32.0 -6.0 -4.0 0.0 11.0 14.0 11.0 4.0 -1.0 0.0 2.0 -1.0 -12.0 -25.0 -45.0 -76.0 -102.0 -76.0 -4.0 22.0 26.0 66.0 83.0 53.0 28.0 39.0 29.0 -2.0 -14.0 -26.0 -23.0 0.0 0.0 0.0 30.0 31.0 4.0 8.0 9.0 -4.0 -5.0 -10.0 -34.0 -35.0 -9.0 -3.0 10.0 15.0 -4.0 5.0 23.0 10.0 -22.0 -41.0 -37.0 -38.0 -22.0 1.0 7.0 27.0 44.0 41.0 33.0 13.0 -17.0 -21.0 0.0 9.0 12.0 18.0 21.0 6.0 -1.0 -12.0 -43.0 -27.0 -1.0 -42.0 -78.0 -19.0 53.0 29.0 15.0 20.0 -2.0 22.0 21.0 -7.0 6.0 6.0 13.0 19.0 13.0 17.0 -6.0 -26.0 -29.0 -13.0 43.0 36.0 -22.0 -18.0 -28.0 -85.0 -80.0 -27.0 -8.0 -5.0 5.0 20.0 73.0 128.0 157.0 134.0 5.0 -126.0 -172.0 -157.0 -118.0 -70.0 11.0 52.0 62.0 113.0 93.0 45.0 29.0 -7.0 -22.0 0.0 26.0 -7.0 0.0 53.0 -4.0 0.0 50.0 -35.0 -136.0 -151.0 -82.0 -58.0 -53.0 59.0 157.0 161.0 97.0 48.0 34.0 -69.0 -213.0 -186.0 -44.0 0.0 43.0 115.0 88.0 72.0 72.0 49.0 61.0 44.0 -10.0 -41.0 -43.0 -26.0 -22.0 -24.0 11.0 20.0 -23.0 -34.0 -46.0 -71.0 -62.0 -35.0 25.0 72.0 27.0 -15.0 1.0 9.0 24.0 37.0 0.0 -21.0 -6.0 0.0 -3.0 -23.0 -20.0 18.0 4.0 -18.0 -8.0 -28.0 -36.0 -42.0 -44.0 26.0 82.0 43.0 -39.0 -49.0 19.0 50.0 60.0 67.0 47.0 34.0 15.0 16.0 53.0 19.0 -84.0 -128.0 -126.0 -138.0 -103.0 -18.0 22.0 27.0 74.0 115.0 94.0 59.0 13.0 4.0 55.0 50.0 28.0 24.0 -16.0 -32.0 -41.0 -65.0 -42.0 -9.0 9.0 25.0 27.0 23.0 25.0 28.0 -3.0 -46.0 -38.0 -20.0 -48.0 -43.0 -16.0 -45.0 -30.0 6.0 8.0 26.0 25.0 30.0 43.0 37.0 56.0 68.0 56.0 22.0 -27.0 -101.0 -161.0 -85.0 15.0 44.0 79.0 4.0 -139.0 -149.0 -70.0 -10.0 35.0 92.0 69.0 -6.0 1.0 24.0 41.0 62.0 54.0 63.0 49.0 30.0 41.0 9.0 -50.0 -47.0 0.0 -12.0 -36.0 -11.0 2.0 16.0 26.0 19.0 5.0 -7.0 18.0 6.0 -35.0 -28.0 -41.0 -49.0 -59.0 -84.0 -70.0 -2.0 78.0 60.0 44.0 71.0 -16.0 -97.0 -80.0 -34.0 9.0 50.0 83.0 39.0 17.0 52.0 46.0 57.0 46.0 -4.0 -31.0 -68.0 -69.0 -22.0 -37.0 -56.0 -31.0 -36.0 -16.0 13.0 25.0 62.0 64.0 39.0 33.0 22.0 9.0 13.0 40.0 67.0 59.0 14.0 -67.0 -129.0 -107.0 -71.0 -52.0 2.0 52.0 25.0 -27.0 -36.0 -19.0 -25.0 -38.0 17.0 80.0 73.0 43.0 9.0 16.0 26.0 -27.0 -51.0 -23.0 34.0 58.0 17.0 13.0 13.0 -6.0 -24.0 -18.0 14.0 -24.0 -86.0 -73.0 -13.0 35.0 56.0 53.0 -2.0 -49.0 -20.0 18.0 27.0 21.0 17.0 34.0 51.0 23.0 -14.0 -13.0 -3.0 7.0 33.0 8.0 -100.0 -117.0 -17.0 1.0 -11.0 11.0 20.0 17.0 9.0 52.0 78.0 24.0 -3.0 -13.0 -43.0 -84.0 -70.0 10.0 4.0 -40.0 -4.0 31.0 41.0 54.0 57.0 16.0 -47.0 -75.0 -57.0 9.0 47.0 22.0 34.0 41.0 10.0 -10.0 -45.0 -52.0 -16.0 32.0 32.0 -27.0 -26.0 0.0 21.0 54.0 41.0 53.0 60.0 17.0 18.0 -2.0 -78.0 -113.0 -53.0 27.0 -32.0 -87.0 -16.0 -17.0 -56.0 -2.0 67.0 85.0 83.0 61.0 25.0 29.0 41.0 21.0 3.0 -26.0 -69.0 -74.0 -74.0 -61.0 8.0 48.0 48.0 49.0 40.0 33.0 4.0 -56.0 -73.0 -41.0 -4.0 18.0 -12.0 -25.0 6.0 17.0 30.0 38.0 25.0 9.0 -17.0 -19.0 11.0 21.0 -9.0 -43.0 -54.0 -40.0 1.0 34.0 46.0 48.0 16.0 -41.0 -61.0 -22.0 -25.0 -42.0 5.0 43.0 57.0 62.0 33.0 23.0 53.0 46.0 -22.0 -68.0 -57.0 -23.0 -45.0 -58.0 32.0 44.0 -39.0 -28.0 12.0 6.0 16.0 5.0 -20.0 8.0 45.0 44.0 32.0 29.0 25.0 11.0 7.0 17.0 -2.0 -39.0 -29.0 -19.0 -39.0 -11.0 -1.0 -60.0 -60.0 -20.0 -13.0 0.0 14.0 29.0 43.0 43.0 30.0 15.0 15.0 11.0 1.0 -10.0 -27.0 -21.0 1.0 2.0 4.0 9.0 -3.0 9.0 25.0 -3.0 -19.0 -18.0 -20.0 -18.0 -39.0 -41.0 23.0 43.0 -40.0 -74.0 -19.0 22.0 42.0 58.0 74.0 49.0 -7.0 -9.0 16.0 17.0 11.0 6.0 5.0 30.0 63.0 59.0 50.0 17.0 -71.0 -133.0 -143.0 -194.0 -222.0 -101.0 7.0 59.0 116.0 109.0 95.0 92.0 72.0 64.0 43.0 26.0 22.0 9.0 -3.0 0.0 13.0 11.0 0.0 -32.0 -56.0 -28.0 -1.0 -18.0 -41.0 -46.0 -33.0 -12.0 20.0 31.0 8.0 11.0 -6.0 -44.0 -18.0 10.0 0.0 7.0 6.0 -19.0 -5.0 18.0 -6.0 -37.0 -26.0 3.0 6.0 0.0 0.0 13.0 26.0 18.0 16.0 28.0 38.0 15.0 -15.0 -6.0 3.0 -43.0 -59.0 10.0 28.0 15.0 33.0 22.0 15.0 16.0 -1.0 0.0 16.0 23.0 6.0 -12.0 -9.0 -3.0 -21.0 -48.0 -58.0 -52.0 -24.0 -5.0 1.0 27.0 33.0 24.0 20.0 -1.0 -4.0 3.0 -2.0 21.0 46.0 48.0 34.0 -23.0 -64.0 -30.0 26.0 54.0 40.0 -14.0 -85.0 -115.0 -104.0 -61.0 4.0 42.0 41.0 32.0 53.0 85.0 86.0 72.0 31.0 -33.0 -81.0 -96.0 -68.0 -15.0 18.0 33.0 36.0 21.0 25.0 25.0 13.0 11.0 -2.0 -11.0 -16.0 -14.0 -11.0 -14.0 -10.0 -49.0 -70.0 -17.0 9.0 6.0 -1.0 -18.0 -41.0 -30.0 47.0 71.0 48.0 56.0 24.0 -7.0 -18.0 -31.0 -7.0 4.0 -4.0 27.0 59.0 20.0 -25.0 -18.0 -7.0 6.0 17.0 -8.0 -30.0 -25.0 -13.0 -16.0 -15.0 5.0 17.0 23.0 23.0 4.0 0.0 14.0 16.0 1.0 -15.0 -2.0 28.0 -2.0 -48.0 -41.0 -37.0 -29.0 -16.0 3.0 36.0 28.0 0.0 -7.0 3.0 12.0 17.0 31.0 32.0 26.0 31.0 28.0 9.0 -25.0 -52.0 -37.0 -19.0 -30.0 -27.0 -22.0 -57.0 -77.0 -15.0 51.0 48.0 36.0 29.0 24.0 31.0 1.0 -12.0 19.0 25.0 14.0 28.0 45.0 18.0 -53.0 -87.0 -48.0 -67.0 -93.0 -36.0 3.0 47.0 73.0 46.0 43.0 54.0 47.0 20.0 4.0 13.0 8.0 -11.0 -5.0 9.0 -14.0 -31.0 -21.0 -34.0 -59.0 -50.0 -11.0 14.0 11.0 0.0 7.0 25.0 36.0 38.0 33.0 27.0 20.0 22.0 46.0 53.0 0.0 -64.0 -109.0 -131.0 -86.0 -27.0 12.0 57.0 71.0 55.0 38.0 24.0 5.0 -17.0 -31.0 -28.0 -41.0 -66.0 -25.0 13.0 -14.0 -45.0 -40.0 26.0 57.0 5.0 3.0 40.0 40.0 44.0 43.0 31.0 35.0 25.0 14.0 4.0 -16.0 -27.0 -38.0 -44.0 -24.0 -7.0 -6.0 2.0 8.0 7.0 12.0 11.0 6.0 8.0 1.0 -7.0 -12.0 -16.0 -18.0 -18.0 4.0 20.0 7.0 6.0 9.0 5.0 -9.0 -25.0 -24.0 -30.0 -17.0 5.0 -23.0 -29.0 16.0 24.0 23.0 19.0 0.0 8.0 8.0 6.0 22.0 10.0 -13.0 -7.0 20.0 36.0 17.0 -8.0 -30.0 -12.0 75.0 107.0 19.0 -51.0 -65.0 -101.0 -137.0 -98.0 -9.0 18.0 -8.0 26.0 63.0 39.0 39.0 39.0 26.0 23.0 14.0 21.0 21.0 14.0 15.0 7.0 3.0 0.0 -2.0 -3.0 -8.0 -2.0 -6.0 -15.0 -11.0 -19.0 -27.0 -16.0 -6.0 -4.0 -7.0 -6.0 -4.0 -5.0 -4.0 -6.0 -4.0 0.0 -5.0 -6.0 5.0 1.0 -2.0 2.0 0.0 2.0 5.0 7.0 17.0 19.0 23.0 15.0 5.0 6.0 -27.0 -58.0 -48.0 -41.0 -24.0 -7.0 -5.0 14.0 41.0 47.0 17.0 -6.0 12.0 12.0 9.0 27.0 17.0 6.0 31.0 38.0 2.0 -21.0 -28.0 -33.0 -41.0 -64.0 -22.0 42.0 35.0 31.0 25.0 14.0 17.0 0.0 -12.0 -17.0 -16.0 -4.0 1.0 3.0 -6.0 -15.0 -2.0 9.0 4.0 7.0 11.0 -1.0 -4.0 -1.0 -7.0 -3.0 3.0 4.0 7.0 17.0 8.0 -15.0 -31.0 -29.0 -22.0 -44.0 -12.0 43.0 27.0 19.0 6.0 -22.0 -3.0 -6.0 -22.0 3.0 22.0 14.0 2.0 -5.0 1.0 20.0 11.0 -8.0 -4.0 -11.0 -5.0 12.0 -5.0 -11.0 -4.0 -2.0 8.0 12.0 20.0 23.0 6.0 -9.0 -13.0 2.0 3.0 0.0 14.0 11.0 10.0 16.0 9.0 -10.0 -15.0 -1.0 -30.0 -58.0 -46.0 -28.0 7.0 23.0 27.0 32.0 6.0 -2.0 4.0 -9.0 -23.0 -19.0 1.0 9.0 0.0 0.0 16.0 23.0 10.0 1.0 1.0 0.0 0.0 0.0 2.0 5.0 1.0 0.0 1.0 -1.0 -2.0 0.0 0.0 -1.0 -1.0 -1.0 -1.0 -1.0 0.0 0.0 0.0 -1.0 -1.0 0.0 -5.0 -8.0 1.0 5.0 8.0 16.0 12.0 22.0 31.0 -7.0 -45.0 -28.0 -8.0 -33.0 -51.0 -28.0 -5.0 14.0 40.0 44.0 33.0 17.0 -10.0 -25.0 -16.0 -1.0 9.0 14.0 18.0 7.0 -12.0 -10.0 3.0 11.0 9.0 -2.0 -5.0 -3.0 -7.0 4.0 4.0 -2.0 9.0 10.0 3.0 -9.0 -11.0 4.0 5.0 7.0 -2.0 -17.0 -2.0 -4.0 -16.0 1.0 9.0 8.0 4.0 -5.0 -1.0 -9.0 -25.0 -25.0 -16.0 -2.0 4.0 10.0 11.0 0.0 1.0 9.0 9.0 6.0 7.0 7.0 6.0 13.0 20.0 16.0 19.0 18.0 -13.0 -32.0 -26.0 -31.0 -13.0 13.0 4.0 -12.0 -16.0 0.0 15.0 5.0 3.0 8.0 12.0 17.0 7.0 -9.0 -16.0 -6.0 11.0 19.0 10.0 -12.0 -28.0 -23.0 -2.0 16.0 18.0 15.0 11.0 4.0 -5.0 -1.0 4.0 -8.0 -9.0 -11.0 -25.0 -15.0 -8.0 -4.0 15.0 18.0 7.0 6.0 14.0 9.0 -8.0 -6.0 -2.0 -7.0 -15.0 -24.0 -4.0 9.0 0.0 6.0 2.0 1.0 5.0 0.0 14.0 22.0 14.0 6.0 -11.0 -28.0 -25.0 -12.0 -9.0 -7.0 3.0 15.0 19.0 0.0 -11.0 -4.0 -1.0 14.0 23.0 8.0 2.0 13.0 15.0 -3.0 -12.0 -8.0 4.0 12.0 -4.0 -2.0 -3.0 -27.0 -26.0 -13.0 0.0 12.0 12.0 13.0 18.0 23.0 21.0 3.0 -9.0 -11.0 -26.0 -31.0 -18.0 -8.0 3.0 11.0 14.0 17.0 14.0 2.0 -9.0 -14.0 -6.0 5.0 9.0 9.0 1.0 -3.0 0.0 -2.0 -1.0 0.0 0.0 2.0 5.0 10.0 4.0 -6.0 -4.0 -1.0 -9.0 -21.0 -26.0 -20.0 -1.0 9.0 6.0 10.0 9.0 3.0 3.0 1.0 3.0 5.0 0.0 1.0 11.0 16.0 10.0 10.0 9.0 4.0 4.0 -10.0 -29.0 -24.0 -25.0 -33.0 -17.0 -3.0 -3.0 6.0 19.0 20.0 16.0 20.0 20.0 13.0 10.0 4.0 2.0 9.0 0.0 -18.0 -21.0 -23.0 -22.0 -9.0 -1.0 5.0 8.0 2.0 9.0 13.0 5.0 8.0 0.0 -7.0 2.0 0.0 -2.0 2.0 1.0 0.0 -8.0 -8.0 4.0 3.0 2.0 3.0 -2.0 0.0 0.0 -4.0 -1.0 1.0 6.0 8.0 1.0 0.0 7.0 10.0 5.0 -12.0 -22.0 -18.0 -14.0 -6.0 0.0 -2.0 7.0 14.0 13.0 16.0 5.0 -14.0 -27.0 -27.0 -10.0 9.0 15.0 18.0 23.0 19.0 19.0 26.0 20.0 9.0 3.0 -1.0 -16.0 -47.0 -63.0 -57.0 -42.0 -12.0 21.0 50.0 57.0 20.0 -10.0 -4.0 2.0 3.0 5.0 3.0 0.0 1.0 0.0 0.0 2.0 2.0 7.0 12.0 -1.0 -4.0 0.0 -7.0 -2.0 4.0 -4.0 -27.0 -29.0 -5.0 0.0 10.0 14.0 0.0 5.0 8.0 -1.0 2.0 1.0 0.0 1.0 2.0 3.0 5.0 13.0 8.0 -7.0 -15.0 0.0 -2.0 -45.0 -34.0 18.0 25.0 18.0 11.0 -15.0 -30.0 -22.0 -10.0 5.0 25.0 25.0 25.0 32.0 21.0 1.0 -13.0 -21.0 -22.0 -27.0 -13.0 16.0 21.0 18.0 18.0 4.0 -6.0 -10.0 -19.0 -15.0 0.0 4.0 13.0 14.0 0.0 -12.0 -22.0 -28.0 -32.0 -12.0 11.0 11.0 19.0 24.0 19.0 15.0 12.0 7.0 -1.0 -2.0 1.0 4.0 -3.0 -8.0 -3.0 -5.0 -4.0 -6.0 -5.0 0.0 -4.0 -3.0 0.0 -2.0 -8.0 -15.0 -7.0 4.0 2.0 0.0 2.0 2.0 4.0 1.0 3.0 11.0 9.0 0.0 -3.0 0.0 4.0 -3.0 -17.0 4.0 22.0 -6.0 -20.0 -13.0 -20.0 -20.0 5.0 15.0 12.0 10.0 -10.0 -5.0 2.0 -10.0 4.0 15.0 16.0 28.0 21.0 12.0 13.0 5.0 -2.0 -4.0 -8.0 -6.0 0.0 -1.0 -4.0 -4.0 -4.0 -3.0 -5.0 -6.0 -10.0 -11.0 -1.0 1.0 -1.0 0.0 0.0 0.0 0.0 -3.0 -2.0 0.0 0.0 0.0 1.0 3.0 1.0 0.0 -1.0 0.0 -7.0 -8.0 -1.0 -4.0 0.0 5.0 0.0 6.0 7.0 4.0 9.0 8.0 1.0 -2.0 -7.0 -16.0 -8.0 -4.0 -8.0 -4.0 0.0 15.0 22.0 9.0 2.0 2.0 -2.0 -13.0 -8.0 -3.0 -9.0 -4.0 4.0 18.0 18.0 3.0 4.0 3.0 -1.0 6.0 13.0 19.0 20.0 -7.0 -31.0 -19.0 -9.0 -9.0 -6.0 0.0 -3.0 -21.0 -17.0 -18.0 -10.0 10.0 0.0 2.0 5.0 10.0 34.0 26.0 6.0 2.0 0.0 -14.0 -35.0 -19.0 10.0 30.0 46.0 50.0 40.0 0.0 -51.0 -71.0 -64.0 -53.0 -32.0 1.0 16.0 19.0 23.0 24.0 35.0 36.0 24.0 1.0 -26.0 -22.0 -1.0 10.0 18.0 10.0 -2.0 -1.0 5.0 12.0 9.0 -3.0 -23.0 -35.0 -8.0 12.0 2.0 -2.0 5.0 9.0 -1.0 1.0 12.0 11.0 25.0 31.0 13.0 -12.0 -55.0 -84.0 -64.0 -49.0 -51.0 -23.0 18.0 46.0 64.0 74.0 54.0 0.0 -8.0 43.0 37.0 -21.0 -75.0 -107.0 -62.0 11.0 45.0 55.0 44.0 27.0 4.0 -2.0 47.0 70.0 -6.0 -80.0 -87.0 -48.0 12.0 32.0 1.0 -11.0 -12.0 -9.0 12.0 26.0 31.0 29.0 25.0 22.0 15.0 5.0 1.0 8.0 1.0 -12.0 -5.0 -6.0 -8.0 -6.0 -10.0 -6.0 -5.0 -7.0 0.0 -2.0 -14.0 -17.0 -18.0 -18.0 -18.0 -27.0 -16.0 13.0 27.0 24.0 14.0 13.0 13.0 2.0 -18.0 -38.0 -34.0 -23.0 -2.0 27.0 27.0 16.0 9.0 5.0 12.0 18.0 14.0 12.0 22.0 20.0 22.0 42.0 13.0 -29.0 -50.0 -87.0 -68.0 -37.0 -54.0 -26.0 15.0 22.0 24.0 17.0 15.0 29.0 31.0 13.0 11.0 22.0 25.0 21.0 18.0 21.0 13.0 -6.0 -8.0 -3.0 -2.0 8.0 10.0 7.0 0.0 -8.0 -10.0 -22.0 -12.0 3.0 -22.0 -55.0 -54.0 -30.0 -10.0 9.0 34.0 31.0 -8.0 -35.0 -17.0 3.0 10.0 11.0 10.0 19.0 23.0 17.0 25.0 32.0 7.0 5.0 14.0 -18.0 -31.0 -13.0 -13.0 -31.0 -42.0 -31.0 -16.0 -6.0 5.0 6.0 2.0 19.0 33.0 26.0 25.0 24.0 18.0 15.0 9.0 5.0 5.0 -2.0 -16.0 -24.0 -21.0 -11.0 0.0 9.0 21.0 20.0 2.0 -8.0 -22.0 -26.0 -15.0 -16.0 -4.0 8.0 2.0 -5.0 -9.0 -1.0 9.0 0.0 -5.0 6.0 5.0 2.0 6.0 5.0 4.0 5.0 0.0 -4.0 3.0 12.0 15.0 22.0 24.0 15.0 -5.0 -23.0 -15.0 0.0 -23.0 -43.0 -20.0 -4.0 7.0 11.0 0.0 -11.0 -24.0 -6.0 3.0 -1.0 18.0 14.0 7.0 16.0 23.0 25.0 2.0 -8.0 6.0 12.0 11.0 0.0 -17.0 -16.0 -1.0 -7.0 -29.0 -33.0 -16.0 11.0 27.0 9.0 -7.0 -8.0 -4.0 7.0 7.0 8.0 20.0 13.0 7.0 5.0 -4.0 4.0 10.0 -1.0 -10.0 -10.0 -6.0 -6.0 -11.0 -23.0 -25.0 -10.0 -6.0 0.0 12.0 14.0 21.0 35.0 45.0 46.0 31.0 4.0 -31.0 -50.0 -64.0 -89.0 -83.0 -40.0 0.0 34.0 64.0 68.0 46.0 17.0 0.0 0.0 -11.0 -31.0 -24.0 -13.0 -10.0 12.0 25.0 26.0 27.0 20.0 11.0 6.0 11.0 7.0 -5.0 -2.0 -5.0 -8.0 -3.0 -1.0 5.0 16.0 15.0 0.0 -2.0 -4.0 -19.0 -20.0 -29.0 -36.0 -19.0 -4.0 12.0 15.0 -6.0 -9.0 4.0 3.0 0.0 13.0 15.0 -13.0 -47.0 -45.0 -11.0 10.0 14.0 26.0 34.0 35.0 47.0 45.0 26.0 7.0 -1.0 -1.0 -27.0 -56.0 -55.0 -33.0 -9.0 -8.0 -5.0 -20.0 -25.0 26.0 44.0 26.0 3.0 -9.0 6.0 17.0 25.0 13.0 -13.0 -17.0 -9.0 0.0 9.0 7.0 3.0 2.0 11.0 20.0 20.0 18.0 6.0 9.0 12.0 -19.0 -38.0 -36.0 -42.0 -26.0 -3.0 0.0 1.0 3.0 3.0 -2.0 -5.0 7.0 7.0 0.0 4.0 1.0 0.0 9.0 16.0 18.0 9.0 -13.0 -17.0 -7.0 -20.0 -17.0 -6.0 0.0 24.0 25.0 30.0 37.0 -18.0 -87.0 -86.0 -38.0 1.0 21.0 31.0 45.0 61.0 50.0 8.0 -27.0 -22.0 1.0 14.0 20.0 18.0 15.0 20.0 21.0 13.0 9.0 3.0 -10.0 -19.0 -29.0 -29.0 -22.0 -37.0 -45.0 -34.0 -17.0 -2.0 1.0 11.0 15.0 17.0 25.0 11.0 0.0 8.0 16.0 8.0 -7.0 0.0 10.0 -10.0 -29.0 -33.0 -18.0 29.0 49.0 16.0 -16.0 -33.0 -34.0 -30.0 -14.0 19.0 30.0 29.0 27.0 22.0 20.0 9.0 0.0 0.0 7.0 15.0 12.0 -1.0 -16.0 -20.0 -15.0 -14.0 -12.0 -9.0 -11.0 -3.0 7.0 9.0 12.0 0.0 -15.0 -2.0 14.0 23.0 17.0 3.0 -1.0 2.0 12.0 1.0 -8.0 5.0 -2.0 -16.0 -8.0 -5.0 -14.0 -28.0 -28.0 -7.0 23.0 33.0 0.0 -19.0 -19.0 -28.0 -11.0 -10.0 -33.0 -33.0 -19.0 0.0 6.0 25.0 48.0 41.0 53.0 65.0 41.0 -2.0 -34.0 -24.0 -19.0 -27.0 -27.0 -16.0 15.0 39.0 56.0 44.0 -1.0 -10.0 -1.0 -22.0 -36.0 -36.0 -20.0 4.0 -1.0 -3.0 4.0 0.0 -2.0 -2.0 -2.0 -14.0 -30.0 -1.0 32.0 20.0 19.0 49.0 55.0 19.0 -42.0 -85.0 -78.0 -36.0 -17.0 -39.0 -32.0 10.0 43.0 59.0 70.0 80.0 73.0 36.0 -15.0 -31.0 -2.0 14.0 -6.0 -45.0 -69.0 -66.0 -31.0 16.0 15.0 -32.0 -53.0 -55.0 -60.0 -16.0 26.0 48.0 92.0 96.0 67.0 50.0 20.0 -27.0 -42.0 -13.0 13.0 15.0 -6.0 -7.0 23.0 12.0 -17.0 -14.0 0.0 9.0 14.0 12.0 -14.0 -30.0 -12.0 -8.0 -11.0 -18.0 -29.0 9.0 48.0 47.0 18.0 -41.0 -78.0 -94.0 -83.0 -27.0 18.0 46.0 63.0 41.0 -19.0 -64.0 -58.0 -13.0 32.0 49.0 48.0 35.0 30.0 24.0 14.0 20.0 18.0 14.0 21.0 22.0 18.0 13.0 5.0 -15.0 -37.0 -45.0 -39.0 -29.0 -22.0 -5.0 4.0 7.0 17.0 15.0 10.0 9.0 0.0 -3.0 3.0 -7.0 -23.0 -32.0 -29.0 -15.0 -4.0 -1.0 1.0 24.0 39.0 22.0 18.0 8.0 -34.0 -53.0 -13.0 24.0 21.0 20.0 23.0 21.0 -1.0 -28.0 -12.0 8.0 1.0 -19.0 -31.0 -36.0 -24.0 7.0 33.0 54.0 44.0 12.0 8.0 0.0 -13.0 -6.0 -15.0 -52.0 -53.0 -23.0 -3.0 22.0 50.0 46.0 15.0 5.0 11.0 15.0 8.0 -15.0 -22.0 -7.0 8.0 15.0 6.0 3.0 0.0 -14.0 -12.0 -1.0 1.0 -19.0 -43.0 -38.0 -35.0 -23.0 -2.0 -13.0 -12.0 16.0 43.0 68.0 76.0 61.0 62.0 79.0 50.0 -27.0 -99.0 -123.0 -86.0 -20.0 -7.0 -59.0 -76.0 -22.0 24.0 41.0 58.0 53.0 28.0 -8.0 -40.0 -45.0 -25.0 15.0 36.0 34.0 39.0 39.0 37.0 33.0 26.0 20.0 6.0 0.0 0.0 -3.0 2.0 8.0 1.0 -7.0 -6.0 -20.0 -38.0 -28.0 -32.0 -63.0 -87.0 -78.0 -32.0 19.0 25.0 22.0 41.0 28.0 23.0 38.0 18.0 5.0 -2.0 -13.0 13.0 22.0 14.0 14.0 3.0 3.0 17.0 12.0 -2.0 5.0 16.0 22.0 47.0 14.0 -65.0 -59.0 -41.0 -74.0 -65.0 -56.0 -71.0 -47.0 -2.0 20.0 27.0 62.0 82.0 40.0 8.0 23.0 40.0 38.0 30.0 6.0 -19.0 -4.0 7.0 -3.0 -3.0 10.0 29.0 36.0 35.0 37.0 49.0 52.0 14.0 -34.0 -83.0 -131.0 -125.0 -103.0 -100.0 -64.0 -24.0 18.0 84.0 86.0 73.0 129.0 131.0 22.0 -57.0 -52.0 -39.0 -36.0 -38.0 -41.0 -16.0 20.0 31.0 25.0 22.0 11.0 8.0 20.0 11.0 1.0 -3.0 -24.0 -23.0 -9.0 -3.0 0.0 -2.0 2.0 2.0 4.0 7.0 1.0 11.0 12.0 3.0 9.0 4.0 -1.0 -4.0 -20.0 -46.0 -70.0 -46.0 4.0 29.0 43.0 43.0 35.0 25.0 10.0 -12.0 -46.0 -52.0 -31.0 -15.0 0.0 18.0 33.0 45.0 78.0 67.0 -47.0 -133.0 -115.0 -64.0 -2.0 40.0 61.0 82.0 78.0 65.0 48.0 19.0 -38.0 -86.0 -58.0 -25.0 -40.0 -30.0 6.0 14.0 0.0 -1.0 12.0 29.0 41.0 51.0 49.0 40.0 44.0 39.0 0.0 -79.0 -141.0 -127.0 -85.0 -33.0 26.0 66.0 83.0 65.0 46.0 38.0 27.0 19.0 -6.0 -16.0 -13.0 -28.0 -25.0 -9.0 0.0 16.0 23.0 21.0 14.0 -4.0 -30.0 -51.0 -52.0 -19.0 18.0 28.0 26.0 12.0 -30.0 -35.0 13.0 27.0 -10.0 -83.0 -117.0 -75.0 -39.0 23.0 84.0 61.0 57.0 73.0 41.0 9.0 5.0 25.0 33.0 1.0 -32.0 -29.0 -6.0 2.0 12.0 27.0 18.0 7.0 9.0 17.0 10.0 -28.0 -44.0 -34.0 -44.0 -31.0 -8.0 -23.0 -47.0 -50.0 -43.0 -22.0 33.0 73.0 64.0 39.0 29.0 53.0 72.0 49.0 9.0 -20.0 -20.0 -10.0 -33.0 -76.0 -83.0 -53.0 -39.0 -23.0 19.0 40.0 47.0 50.0 37.0 52.0 77.0 53.0 8.0 -17.0 -24.0 -38.0 -61.0 -53.0 -38.0 -61.0 -52.0 -3.0 14.0 41.0 50.0 9.0 16.0 28.0 -5.0 -15.0 -23.0 -43.0 -50.0 -48.0 0.0 53.0 52.0 41.0 28.0 0.0 -4.0 22.0 0.0 -49.0 -70.0 -71.0 8.0 66.0 46.0 52.0 41.0 19.0 3.0 0.0 21.0 18.0 2.0 -22.0 -16.0 12.0 16.0 47.0 60.0 43.0 48.0 26.0 -45.0 -114.0 -113.0 -104.0 -130.0 -100.0 -64.0 -54.0 -18.0 17.0 54.0 79.0 82.0 76.0 43.0 17.0 37.0 46.0 25.0 29.0 31.0 18.0 13.0 1.0 10.0 16.0 -10.0 -12.0 -6.0 -15.0 -12.0 -13.0 -1.0 25.0 19.0 -7.0 -22.0 -34.0 -49.0 -51.0 -26.0 -25.0 -81.0 -65.0 20.0 0.0 -34.0 -23.0 -82.0 -101.0 -6.0 85.0 115.0 76.0 49.0 45.0 -62.0 -160.0 -108.0 -39.0 14.0 73.0 88.0 111.0 131.0 114.0 101.0 100.0 100.0 82.0 49.0 30.0 17.0 -10.0 -35.0 -32.0 -34.0 -81.0 -118.0 -101.0 -70.0 -27.0 -41.0 -82.0 -48.0 -63.0 -61.0 33.0 78.0 77.0 10.0 -67.0 -38.0 22.0 46.0 53.0 21.0 -98.0 -151.0 -87.0 -42.0 1.0 9.0 -9.0 6.0 33.0 91.0 123.0 115.0 102.0 44.0 -7.0 -8.0 8.0 19.0 32.0 48.0 56.0 48.0 21.0 7.0 27.0 -1.0 -102.0 -145.0 -119.0 -105.0 -83.0 -46.0 -23.0 -43.0 -70.0 -34.0 -6.0 4.0 64.0 117.0 171.0 215.0 178.0 85.0 -35.0 -143.0 -179.0 -151.0 -127.0 -105.0 -74.0 -53.0 -19.0 -18.0 -13.0 31.0 41.0 52.0 86.0 124.0 165.0 170.0 148.0 98.0 17.0 -64.0 -76.0 -30.0 -37.0 -19.0 28.0 -23.0 -91.0 -98.0 -73.0 -62.0 -72.0 -48.0 11.0 34.0 16.0 40.0 99.0 133.0 77.0 -17.0 -45.0 -97.0 -181.0 -169.0 -14.0 141.0 107.0 35.0 21.0 -50.0 -99.0 -42.0 26.0 5.0 -28.0 -25.0 -23.0 -4.0 -5.0 -1.0 49.0 75.0 76.0 83.0 79.0 73.0 79.0 73.0 59.0 65.0 65.0 32.0 -13.0 -64.0 -72.0 -40.0 -50.0 -72.0 -78.0 -96.0 -73.0 -44.0 -35.0 17.0 56.0 73.0 80.0 24.0 -27.0 -101.0 -246.0 -297.0 -153.0 -44.0 -98.0 -35.0 109.0 102.0 96.0 117.0 94.0 86.0 84.0 79.0 65.0 54.0 29.0 -17.0 -19.0 11.0 2.0 -2.0 35.0 65.0 103.0 136.0 133.0 123.0 77.0 -14.0 -61.0 -96.0 -247.0 -320.0 -180.0 -96.0 -102.0 -8.0 73.0 16.0 0.0 25.0 8.0 34.0 70.0 67.0 18.0 -48.0 -37.0 -7.0 32.0 75.0 49.0 53.0 45.0 8.0 18.0 8.0 26.0 29.0 -31.0 -19.0 33.0 18.0 -13.0 0.0 -2.0 -19.0 -2.0 11.0 9.0 -24.0 -87.0 -94.0 -65.0 -47.0 0.0 33.0 25.0 53.0 77.0 0.0 -101.0 -71.0 9.0 14.0 24.0 31.0 -5.0 -35.0 -41.0 7.0 31.0 -20.0 -13.0 28.0 -12.0 -67.0 0.0 84.0 64.0 36.0 22.0 49.0 94.0 112.0 150.0 129.0 27.0 -126.0 -284.0 -329.0 -262.0 -136.0 -33.0 11.0 89.0 185.0 229.0 226.0 194.0 165.0 30.0 -223.0 -310.0 -222.0 -193.0 -123.0 50.0 74.0 -12.0 -5.0 38.0 84.0 136.0 155.0 152.0 131.0 113.0 99.0 35.0 -18.0 -2.0 4.0 -4.0 -6.0 -23.0 -36.0 -36.0 -35.0 -37.0 -35.0 -34.0 -28.0 -15.0 -22.0 -20.0 -31.0 -70.0 -76.0 -107.0 -127.0 -74.0 -32.0 -1.0 -21.0 -43.0 -6.0 -17.0 -23.0 5.0 16.0 33.0 44.0 5.0 -74.0 -117.0 -64.0 59.0 159.0 171.0 165.0 151.0 81.0 47.0 73.0 92.0 81.0 0.0 -76.0 -84.0 -79.0 -62.0 -60.0 -95.0 -126.0 -80.0 18.0 51.0 69.0 93.0 94.0 107.0 89.0 53.0 9.0 -62.0 -96.0 -127.0 -219.0 -209.0 -110.0 -44.0 20.0 21.0 34.0 101.0 94.0 92.0 104.0 83.0 92.0 115.0 98.0 67.0 39.0 7.0 -7.0 10.0 17.0 -26.0 -79.0 -71.0 13.0 55.0 16.0 -35.0 -203.0 -378.0 -293.0 -119.0 -48.0 3.0 52.0 53.0 57.0 89.0 92.0 98.0 124.0 144.0 184.0 172.0 69.0 -26.0 -129.0 -243.0 -257.0 -193.0 -119.0 -60.0 -55.0 -41.0 -12.0 -13.0 -2.0 25.0 75.0 147.0 207.0 265.0 295.0 247.0 179.0 118.0 -53.0 -253.0 -191.0 -10.0 17.0 37.0 28.0 -53.0 -104.0 -193.0 -244.0 -154.0 -46.0 13.0 64.0 74.0 48.0 54.0 59.0 52.0 69.0 112.0 139.0 108.0 74.0 -8.0 -210.0 -298.0 -142.0 -32.0 -104.0 -171.0 -153.0 -106.0 -101.0 -80.0 19.0 90.0 129.0 157.0 152.0 168.0 165.0 125.0 114.0 120.0 85.0 32.0 27.0 31.0 9.0 -11.0 -30.0 -30.0 -14.0 -6.0 -12.0 -32.0 -50.0 -65.0 -101.0 -130.0 -115.0 -84.0 -88.0 -83.0 -28.0 -5.0 -12.0 6.0 10.0 28.0 87.0 86.0 50.0 27.0 -12.0 -62.0 -110.0 -93.0 1.0 75.0 74.0 46.0 18.0 -27.0 -89.0 -117.0 -86.0 -50.0 -3.0 58.0 77.0 91.0 135.0 157.0 152.0 131.0 90.0 49.0 3.0 -34.0 -41.0 -5.0 26.0 23.0 17.0 -27.0 -97.0 -133.0 -148.0 -109.0 -33.0 -13.0 -18.0 11.0 50.0 46.0 16.0 51.0 93.0 45.0 -35.0 -99.0 -99.0 -76.0 -85.0 -36.0 37.0 38.0 -4.0 -6.0 36.0 67.0 89.0 87.0 42.0 -4.0 -48.0 -57.0 -9.0 0.0 -18.0 -1.0 -13.0 -17.0 -4.0 -13.0 1.0 7.0 13.0 30.0 30.0 14.0 -29.0 -14.0 128.0 233.0 179.0 80.0 -29.0 -208.0 -329.0 -241.0 -85.0 -43.0 -13.0 3.0 -32.0 -10.0 8.0 6.0 37.0 23.0 -10.0 1.0 22.0 17.0 2.0 -2.0 19.0 63.0 92.0 90.0 70.0 37.0 -8.0 -23.0 9.0 44.0 55.0 58.0 93.0 110.0 105.0 110.0 79.0 34.0 -44.0 -181.0 -305.0 -348.0 -255.0 -137.0 -108.0 -72.0 -18.0 0.0 29.0 78.0 114.0 111.0 88.0 87.0 62.0 3.0 18.0 88.0 118.0 132.0 132.0 80.0 36.0 9.0 -76.0 -155.0 -110.0 11.0 81.0 56.0 19.0 7.0 -49.0 -128.0 -121.0 -55.0 -37.0 -46.0 -55.0 -69.0 -53.0 -34.0 -28.0 28.0 120.0 107.0 27.0 2.0 -44.0 -128.0 -118.0 2.0 85.0 87.0 105.0 112.0 89.0 54.0 1.0 -26.0 -9.0 10.0 15.0 27.0 28.0 -6.0 -38.0 -47.0 -54.0 -57.0 -49.0 -33.0 6.0 91.0 157.0 125.0 32.0 -41.0 -121.0 -250.0 -296.0 -167.0 -45.0 -49.0 -41.0 11.0 19.0 26.0 59.0 79.0 89.0 101.0 116.0 121.0 138.0 152.0 106.0 50.0 35.0 55.0 78.0 52.0 -11.0 -34.0 -37.0 -81.0 -124.0 -145.0 -132.0 -106.0 -141.0 -172.0 -161.0 -118.0 -85.0 -85.0 14.0 137.0 145.0 132.0 150.0 211.0 298.0 317.0 211.0 58.0 -43.0 -177.0 -336.0 -293.0 -104.0 -38.0 -50.0 -58.0 -99.0 -89.0 -30.0 27.0 78.0 82.0 95.0 142.0 147.0 126.0 83.0 14.0 -36.0 -65.0 -57.0 -13.0 9.0 1.0 -21.0 -44.0 -51.0 -72.0 -61.0 22.0 51.0 32.0 60.0 28.0 -75.0 -119.0 -83.0 -45.0 -55.0 -78.0 -99.0 -103.0 -76.0 -27.0 44.0 97.0 128.0 137.0 116.0 98.0 56.0 13.0 13.0 26.0 25.0 10.0 16.0 51.0 67.0 42.0 22.0 33.0 15.0 -62.0 -71.0 34.0 -1.0 -188.0 -235.0 -113.0 -23.0 -27.0 -27.0 -22.0 -10.0 17.0 4.0 16.0 64.0 99.0 124.0 116.0 100.0 89.0 72.0 51.0 25.0 -6.0 -47.0 -46.0 -23.0 -39.0 -66.0 -79.0 -77.0 -91.0 -70.0 -12.0 -10.0 -1.0 25.0 2.0 -4.0 48.0 77.0 35.0 -26.0 -70.0 -101.0 -121.0 -92.0 2.0 73.0 81.0 78.0 83.0 99.0 93.0 10.0 -74.0 -86.0 -88.0 -94.0 -63.0 -21.0 9.0 28.0 51.0 76.0 73.0 62.0 78.0 102.0 76.0 48.0 48.0 -14.0 -86.0 -92.0 -71.0 -60.0 -46.0 -26.0 -29.0 -14.0 3.0 1.0 22.0 29.0 28.0 72.0 133.0 153.0 90.0 1.0 -56.0 -185.0 -354.0 -317.0 -141.0 -51.0 14.0 59.0 53.0 85.0 95.0 87.0 103.0 114.0 142.0 136.0 94.0 57.0 13.0 -11.0 -29.0 -66.0 -65.0 -34.0 -42.0 -47.0 -36.0 -46.0 -49.0 -78.0 -113.0 -36.0 39.0 26.0 43.0 41.0 8.0 -1.0 -38.0 -37.0 2.0 27.0 39.0 26.0 38.0 73.0 70.0 15.0 -42.0 -58.0 -115.0 -204.0 -103.0 84.0 56.0 9.0 73.0 78.0 71.0 62.0 36.0 43.0 52.0 70.0 85.0 53.0 20.0 -29.0 -149.0 -223.0 -172.0 -82.0 -20.0 16.0 42.0 40.0 31.0 66.0 103.0 83.0 54.0 44.0 5.0 -42.0 -49.0 -42.0 -38.0 -52.0 -86.0 -87.0 -66.0 -45.0 23.0 111.0 132.0 109.0 85.0 24.0 -70.0 -94.0 -32.0 25.0 12.0 -51.0 -76.0 -48.0 -12.0 7.0 2.0 0.0 6.0 17.0 38.0 12.0 -20.0 11.0 20.0 9.0 42.0 43.0 32.0 39.0 24.0 19.0 12.0 -1.0 -6.0 -13.0 -14.0 -39.0 -69.0 -71.0 -66.0 -58.0 -27.0 -3.0 -18.0 0.0 39.0 47.0 51.0 35.0 29.0 54.0 56.0 65.0 74.0 51.0 23.0 -4.0 -46.0 -83.0 -102.0 -107.0 -67.0 -34.0 -61.0 -49.0 9.0 36.0 45.0 48.0 40.0 21.0 7.0 26.0 35.0 2.0 -47.0 -68.0 -60.0 -82.0 -67.0 20.0 54.0 33.0 64.0 107.0 95.0 83.0 85.0 61.0 25.0 2.0 -17.0 -74.0 -111.0 -85.0 -81.0 -72.0 -25.0 -19.0 -7.0 23.0 21.0 43.0 72.0 54.0 16.0 4.0 5.0 7.0 16.0 8.0 -5.0 -5.0 -2.0 2.0 -4.0 -28.0 -59.0 -79.0 -55.0 1.0 11.0 -11.0 -23.0 -55.0 -83.0 -68.0 -7.0 52.0 68.0 90.0 109.0 94.0 74.0 33.0 -13.0 -18.0 -19.0 -21.0 18.0 51.0 16.0 -25.0 -30.0 -47.0 -54.0 -25.0 -44.0 -49.0 11.0 9.0 -18.0 -3.0 -2.0 -26.0 -6.0 72.0 89.0 41.0 4.0 -26.0 -10.0 15.0 4.0 -5.0 1.0 18.0 19.0 6.0 -2.0 -8.0 -34.0 -81.0 -82.0 -21.0 20.0 30.0 57.0 66.0 47.0 36.0 12.0 7.0 2.0 -93.0 -154.0 -112.0 -75.0 -15.0 40.0 65.0 104.0 94.0 42.0 -14.0 -49.0 -22.0 6.0 11.0 22.0 48.0 56.0 15.0 -35.0 -63.0 -40.0 -1.0 8.0 24.0 16.0 -19.0 0.0 41.0 31.0 10.0 0.0 -17.0 -3.0 -10.0 -56.0 -67.0 -68.0 -82.0 -63.0 8.0 59.0 62.0 87.0 79.0 29.0 18.0 18.0 13.0 -15.0 -61.0 -51.0 -26.0 -34.0 -51.0 -59.0 -22.0 36.0 70.0 80.0 71.0 70.0 86.0 70.0 39.0 35.0 31.0 -9.0 -50.0 -55.0 -47.0 -62.0 -121.0 -145.0 -67.0 1.0 -7.0 3.0 47.0 49.0 44.0 54.0 40.0 5.0 -41.0 -91.0 -148.0 -127.0 -50.0 -35.0 -6.0 57.0 113.0 161.0 153.0 125.0 96.0 66.0 60.0 30.0 -8.0 -46.0 -125.0 -166.0 -130.0 -105.0 -84.0 -5.0 54.0 62.0 93.0 110.0 78.0 53.0 32.0 -5.0 -33.0 -51.0 -73.0 -82.0 -86.0 -87.0 -52.0 -18.0 4.0 34.0 54.0 76.0 93.0 82.0 52.0 17.0 7.0 15.0 18.0 -4.0 -62.0 -94.0 -100.0 -99.0 -47.0 20.0 70.0 72.0 39.0 42.0 23.0 -10.0 -5.0 -28.0 -72.0 -72.0 -16.0 36.0 32.0 8.0 22.0 53.0 45.0 40.0 25.0 -23.0 -17.0 0.0 -3.0 1.0 -22.0 -40.0 -19.0 1.0 17.0 13.0 0.0 3.0 4.0 0.0 16.0 15.0 -22.0 -33.0 -41.0 -45.0 -15.0 -14.0 -5.0 24.0 16.0 19.0 35.0 35.0 39.0 48.0 43.0 13.0 -3.0 3.0 2.0 -7.0 -41.0 -71.0 -56.0 -30.0 -18.0 -31.0 -57.0 -50.0 -17.0 12.0 15.0 15.0 30.0 24.0 25.0 36.0 22.0 7.0 8.0 10.0 15.0 22.0 18.0 15.0 22.0 25.0 21.0 16.0 4.0 -30.0 -59.0 -61.0 -66.0 -61.0 -18.0 17.0 41.0 55.0 42.0 27.0 17.0 14.0 19.0 14.0 -2.0 -14.0 -16.0 -27.0 -18.0 21.0 13.0 -4.0 16.0 -8.0 -58.0 -70.0 -45.0 6.0 21.0 2.0 -5.0 2.0 22.0 35.0 25.0 1.0 5.0 16.0 5.0 14.0 13.0 -5.0 -7.0 5.0 10.0 -23.0 -57.0 -50.0 -39.0 -30.0 5.0 42.0 46.0 40.0 35.0 26.0 11.0 -9.0 -28.0 -35.0 -19.0 4.0 35.0 44.0 10.0 -25.0 -43.0 -41.0 -14.0 6.0 12.0 9.0 5.0 7.0 0.0 -2.0 15.0 22.0 21.0 20.0 3.0 -8.0 -1.0 -5.0 -4.0 -1.0 -4.0 -3.0 0.0 10.0 12.0 5.0 -1.0 -26.0 -49.0 -46.0 -31.0 -9.0 9.0 17.0 28.0 38.0 25.0 2.0 -4.0 0.0 8.0 15.0 7.0 -24.0 -65.0 -72.0 -31.0 8.0 9.0 6.0 8.0 11.0 22.0 13.0 2.0 13.0 27.0 33.0 33.0 29.0 21.0 21.0 29.0 31.0 34.0 18.0 -30.0 -57.0 -39.0 -47.0 -101.0 -129.0 -79.0 -6.0 31.0 63.0 68.0 49.0 46.0 37.0 21.0 9.0 10.0 10.0 -2.0 -9.0 -7.0 -4.0 -5.0 -1.0 0.0 -11.0 -11.0 -4.0 -9.0 -7.0 -13.0 -24.0 -18.0 -4.0 11.0 17.0 3.0 -8.0 -15.0 -7.0 3.0 -2.0 -6.0 6.0 15.0 13.0 10.0 20.0 21.0 11.0 6.0 -21.0 -37.0 -41.0 -75.0 -62.0 -11.0 16.0 38.0 45.0 37.0 41.0 54.0 53.0 39.0 21.0 8.0 7.0 -14.0 -66.0 -89.0 -87.0 -78.0 -20.0 12.0 2.0 30.0 44.0 46.0 54.0 41.0 35.0 27.0 21.0 18.0 -4.0 -24.0 -26.0 -13.0 3.0 7.0 3.0 -1.0 -7.0 -1.0 -6.0 -29.0 -38.0 -36.0 -24.0 -8.0 -3.0 5.0 3.0 -12.0 -7.0 1.0 9.0 12.0 18.0 47.0 66.0 46.0 1.0 -32.0 -58.0 -74.0 -40.0 -24.0 -33.0 -11.0 -3.0 2.0 14.0 19.0 37.0 38.0 38.0 37.0 19.0 13.0 15.0 13.0 -3.0 -30.0 -43.0 -49.0 -41.0 -29.0 -12.0 15.0 34.0 46.0 52.0 60.0 75.0 60.0 5.0 -72.0 -100.0 -44.0 -9.0 -52.0 -89.0 -61.0 -29.0 -8.0 33.0 49.0 43.0 39.0 26.0 40.0 59.0 71.0 84.0 60.0 41.0 4.0 -117.0 -183.0 -124.0 -77.0 -48.0 3.0 23.0 30.0 56.0 71.0 79.0 71.0 20.0 -39.0 -42.0 -14.0 -24.0 -26.0 -5.0 -3.0 -1.0 -4.0 0.0 14.0 7.0 11.0 18.0 13.0 28.0 41.0 21.0 -3.0 -8.0 -13.0 -37.0 -54.0 -38.0 -16.0 -1.0 0.0 -9.0 -20.0 -20.0 -4.0 -3.0 -9.0 7.0 30.0 64.0 81.0 41.0 16.0 34.0 -20.0 -133.0 -144.0 -64.0 6.0 47.0 29.0 -12.0 -16.0 -16.0 -26.0 -25.0 18.0 69.0 80.0 92.0 82.0 45.0 17.0 -5.0 -9.0 -7.0 2.0 15.0 12.0 10.0 -8.0 -23.0 -19.0 -41.0 -61.0 -64.0 -56.0 -29.0 -8.0 1.0 26.0 32.0 -41.0 -85.0 -36.0 6.0 47.0 88.0 86.0 62.0 25.0 1.0 -26.0 -80.0 -94.0 -47.0 -5.0 7.0 18.0 36.0 49.0 35.0 23.0 32.0 19.0 -3.0 -9.0 -14.0 -20.0 -28.0 -44.0 -47.0 -5.0 28.0 20.0 24.0 25.0 10.0 10.0 12.0 0.0 -9.0 -12.0 -13.0 7.0 32.0 48.0 86.0 101.0 80.0 14.0 -129.0 -214.0 -208.0 -178.0 -89.0 -3.0 54.0 98.0 109.0 113.0 113.0 112.0 72.0 11.0 11.0 2.0 -54.0 -105.0 -131.0 -108.0 -52.0 -18.0 1.0 34.0 50.0 60.0 66.0 42.0 29.0 23.0 12.0 27.0 44.0 24.0 -20.0 -50.0 -59.0 -40.0 -4.0 -21.0 -42.0 -14.0 -13.0 -7.0 24.0 35.0 36.0 49.0 32.0 -38.0 -66.0 -38.0 -61.0 -80.0 -26.0 6.0 -9.0 3.0 15.0 8.0 33.0 56.0 58.0 53.0 38.0 28.0 26.0 16.0 10.0 2.0 2.0 3.0 -7.0 -1.0 -6.0 -38.0 -39.0 -26.0 -29.0 -33.0 -35.0 -19.0 -1.0 7.0 32.0 32.0 15.0 26.0 24.0 5.0 -3.0 -20.0 -58.0 -78.0 -57.0 -23.0 19.0 65.0 81.0 62.0 53.0 50.0 30.0 -10.0 -92.0 -150.0 -122.0 -68.0 -13.0 30.0 47.0 67.0 68.0 49.0 46.0 32.0 17.0 17.0 17.0 11.0 8.0 6.0 1.0 -5.0 -14.0 -20.0 -23.0 -18.0 -7.0 -8.0 -2.0 -2.0 -24.0 -28.0 -29.0 -27.0 -15.0 -4.0 29.0 53.0 37.0 16.0 7.0 21.0 38.0 15.0 -29.0 -56.0 -76.0 -73.0 -59.0 -27.0 43.0 57.0 10.0 -19.0 -15.0 20.0 32.0 32.0 46.0 44.0 46.0 14.0 -49.0 -59.0 -44.0 -22.0 1.0 -4.0 -3.0 6.0 10.0 25.0 22.0 7.0 16.0 25.0 16.0 14.0 27.0 34.0 9.0 -5.0 -5.0 -52.0 -46.0 -3.0 -26.0 -34.0 -19.0 -6.0 1.0 10.0 25.0 -52.0 -104.0 -33.0 20.0 36.0 46.0 49.0 42.0 30.0 20.0 12.0 5.0 -8.0 -15.0 -17.0 -9.0 2.0 0.0 7.0 20.0 25.0 21.0 -1.0 -19.0 -9.0 -6.0 -31.0 -50.0 -44.0 -21.0 -6.0 -7.0 -3.0 10.0 34.0 50.0 49.0 41.0 28.0 3.0 -48.0 -97.0 -115.0 -96.0 -42.0 12.0 48.0 51.0 48.0 45.0 23.0 6.0 9.0 12.0 12.0 29.0 45.0 55.0 69.0 41.0 10.0 32.0 43.0 35.0 9.0 -67.0 -156.0 -194.0 -109.0 1.0 22.0 42.0 52.0 27.0 5.0 -15.0 -16.0 -35.0 -48.0 -4.0 25.0 29.0 35.0 43.0 65.0 63.0 38.0 32.0 26.0 -16.0 -43.0 -17.0 -49.0 -112.0 -103.0 -80.0 -39.0 10.0 14.0 22.0 40.0 54.0 62.0 51.0 35.0 27.0 22.0 20.0 16.0 8.0 12.0 11.0 -9.0 -12.0 -7.0 -32.0 -62.0 -62.0 -45.0 -51.0 -89.0 -106.0 -53.0 34.0 80.0 68.0 55.0 56.0 54.0 51.0 28.0 -16.0 -64.0 -66.0 -22.0 -1.0 20.0 61.0 89.0 79.0 47.0 36.0 20.0 -8.0 -58.0 -105.0 -97.0 -69.0 -35.0 -5.0 18.0 47.0 52.0 45.0 37.0 31.0 16.0 2.0 17.0 23.0 9.0 19.0 15.0 -28.0 -56.0 -47.0 -48.0 -74.0 -76.0 -90.0 -95.0 -8.0 41.0 34.0 61.0 44.0 45.0 62.0 8.0 0.0 11.0 -5.0 21.0 41.0 46.0 55.0 57.0 49.0 19.0 11.0 13.0 -34.0 -87.0 -116.0 -144.0 -111.0 -50.0 -26.0 15.0 31.0 16.0 30.0 39.0 53.0 59.0 55.0 52.0 42.0 38.0 29.0 12.0 -1.0 -18.0 -34.0 -31.0 -30.0 -68.0 -96.0 -83.0 -74.0 -50.0 7.0 40.0 48.0 60.0 67.0 74.0 70.0 48.0 17.0 -27.0 -63.0 -72.0 -55.0 -18.0 7.0 39.0 67.0 27.0 -13.0 -18.0 -27.0 -16.0 12.0 29.0 15.0 8.0 33.0 27.0 19.0 37.0 19.0 -5.0 19.0 47.0 -14.0 -116.0 -108.0 -64.0 -50.0 31.0 84.0 -17.0 -162.0 -182.0 -85.0 -10.0 32.0 71.0 66.0 61.0 70.0 43.0 24.0 44.0 64.0 78.0 94.0 91.0 83.0 61.0 8.0 -54.0 -92.0 -83.0 -48.0 -25.0 -30.0 -35.0 -54.0 -87.0 -69.0 -26.0 -15.0 -48.0 -41.0 7.0 16.0 50.0 119.0 144.0 143.0 136.0 72.0 -57.0 -115.0 -96.0 -131.0 -130.0 -48.0 -27.0 -73.0 -62.0 -24.0 -20.0 30.0 69.0 35.0 37.0 61.0 60.0 35.0 29.0 69.0 84.0 71.0 72.0 49.0 -23.0 -56.0 -25.0 -25.0 -23.0 8.0 -14.0 -108.0 -162.0 -93.0 9.0 30.0 12.0 15.0 25.0 16.0 -39.0 -33.0 37.0 52.0 51.0 12.0 -29.0 53.0 141.0 130.0 40.0 -82.0 -157.0 -213.0 -220.0 -74.0 96.0 128.0 80.0 28.0 1.0 3.0 -31.0 2.0 106.0 78.0 44.0 76.0 19.0 -72.0 -120.0 -118.0 -60.0 -1.0 41.0 70.0 39.0 17.0 53.0 65.0 61.0 36.0 -46.0 -90.0 -43.0 0.0 24.0 35.0 -13.0 -51.0 -75.0 -107.0 -76.0 -34.0 5.0 47.0 41.0 45.0 54.0 26.0 17.0 18.0 43.0 116.0 146.0 107.0 47.0 -61.0 -243.0 -288.0 -80.0 100.0 117.0 91.0 42.0 -25.0 -50.0 -52.0 -49.0 -94.0 -197.0 -182.0 -69.0 6.0 16.0 47.0 145.0 144.0 106.0 116.0 94.0 51.0 -22.0 -49.0 -46.0 -69.0 -51.0 -30.0 -20.0 1.0 31.0 77.0 101.0 87.0 68.0 55.0 43.0 41.0 31.0 -6.0 -37.0 -86.0 -144.0 -118.0 -64.0 -38.0 -18.0 -14.0 -3.0 20.0 32.0 12.0 11.0 25.0 -19.0 -64.0 -49.0 9.0 70.0 73.0 44.0 9.0 -31.0 -18.0 20.0 19.0 -20.0 -91.0 -114.0 -94.0 -70.0 22.0 78.0 39.0 24.0 54.0 121.0 167.0 153.0 106.0 21.0 -101.0 -188.0 -114.0 -33.0 -60.0 -22.0 40.0 54.0 69.0 47.0 -22.0 -53.0 -26.0 -87.0 -209.0 -182.0 -11.0 89.0 117.0 167.0 164.0 104.0 26.0 -66.0 -121.0 -93.0 -52.0 -56.0 -32.0 13.0 54.0 95.0 92.0 78.0 60.0 5.0 -26.0 -13.0 19.0 45.0 36.0 36.0 23.0 -39.0 -46.0 35.0 65.0 5.0 7.0 9.0 -176.0 -294.0 -85.0 73.0 -21.0 -25.0 -16.0 -134.0 -141.0 -69.0 19.0 102.0 81.0 60.0 55.0 20.0 -3.0 -5.0 39.0 71.0 51.0 56.0 79.0 74.0 69.0 82.0 54.0 -27.0 -90.0 -90.0 -11.0 51.0 33.0 5.0 -31.0 -44.0 -47.0 -83.0 -59.0 -41.0 -71.0 -26.0 97.0 186.0 144.0 44.0 -35.0 -187.0 -317.0 -220.0 -60.0 -26.0 19.0 65.0 29.0 34.0 61.0 54.0 85.0 126.0 79.0 5.0 0.0 33.0 64.0 77.0 103.0 122.0 93.0 67.0 82.0 106.0 92.0 55.0 -54.0 -285.0 -439.0 -394.0 -247.0 -83.0 -21.0 -14.0 16.0 24.0 61.0 85.0 74.0 74.0 77.0 85.0 60.0 51.0 67.0 53.0 51.0 30.0 -10.0 -22.0 -23.0 -14.0 -7.0 13.0 33.0 -6.0 -56.0 -50.0 -29.0 -9.0 47.0 114.0 164.0 163.0 66.0 -65.0 -206.0 -330.0 -307.0 -164.0 -50.0 13.0 88.0 116.0 65.0 47.0 -11.0 -149.0 -136.0 0.0 -8.0 -9.0 114.0 135.0 125.0 113.0 52.0 63.0 105.0 137.0 141.0 106.0 96.0 68.0 -17.0 -71.0 -62.0 -99.0 -186.0 -185.0 -130.0 -115.0 -44.0 58.0 54.0 45.0 93.0 91.0 38.0 -18.0 -51.0 -79.0 -101.0 -38.0 0.0 -85.0 -122.0 -69.0 -14.0 21.0 30.0 80.0 133.0 115.0 115.0 130.0 97.0 53.0 25.0 -6.0 -82.0 -125.0 -63.0 -25.0 -54.0 -75.0 -95.0 -108.0 -95.0 -2.0 142.0 170.0 124.0 116.0 60.0 -63.0 -180.0 -190.0 -116.0 -73.0 -40.0 -30.0 -16.0 12.0 -6.0 19.0 97.0 120.0 113.0 125.0 98.0 53.0 55.0 35.0 -20.0 -68.0 -43.0 18.0 25.0 51.0 65.0 20.0 -5.0 -32.0 -77.0 -103.0 -79.0 -77.0 -122.0 -110.0 -107.0 -102.0 -8.0 23.0 25.0 68.0 71.0 77.0 110.0 149.0 152.0 108.0 54.0 3.0 -34.0 -39.0 -24.0 -62.0 -163.0 -242.0 -167.0 -5.0 43.0 40.0 59.0 75.0 115.0 134.0 109.0 100.0 90.0 56.0 23.0 -5.0 -14.0 -30.0 -48.0 -53.0 -91.0 -94.0 -31.0 12.0 26.0 9.0 -41.0 -90.0 -113.0 -114.0 -120.0 -89.0 -26.0 -4.0 5.0 -10.0 -57.0 -59.0 -18.0 28.0 95.0 159.0 173.0 162.0 151.0 116.0 22.0 -96.0 -116.0 -50.0 0.0 16.0 -6.0 -17.0 3.0 0.0 -8.0 -13.0 -24.0 -5.0 4.0 -15.0 -3.0 26.0 47.0 41.0 16.0 8.0 -35.0 -110.0 -103.0 -11.0 14.0 -7.0 78.0 109.0 -13.0 -107.0 -123.0 -49.0 51.0 87.0 85.0 52.0 2.0 -41.0 -26.0 22.0 45.0 55.0 52.0 56.0 75.0 89.0 67.0 27.0 28.0 16.0 -45.0 -91.0 -91.0 -95.0 -174.0 -234.0 -159.0 -54.0 15.0 46.0 28.0 16.0 31.0 67.0 66.0 24.0 42.0 54.0 -12.0 -36.0 9.0 6.0 -31.0 -30.0 -3.0 28.0 53.0 106.0 153.0 132.0 117.0 45.0 -85.0 -124.0 -105.0 -119.0 -149.0 -133.0 -115.0 -92.0 6.0 52.0 35.0 50.0 60.0 48.0 8.0 -13.0 -1.0 -5.0 -13.0 -51.0 -63.0 0.0 44.0 111.0 179.0 157.0 113.0 62.0 11.0 4.0 4.0 15.0 2.0 -82.0 -111.0 -81.0 -65.0 -43.0 -60.0 -38.0 30.0 63.0 86.0 42.0 -19.0 -35.0 -80.0 -98.0 -49.0 -42.0 -66.0 13.0 109.0 76.0 34.0 12.0 -32.0 -24.0 5.0 12.0 47.0 75.0 41.0 25.0 65.0 53.0 -42.0 -86.0 -9.0 30.0 -58.0 -156.0 -136.0 -68.0 -49.0 -22.0 7.0 50.0 128.0 149.0 116.0 50.0 -35.0 -85.0 -137.0 -128.0 -8.0 36.0 19.0 45.0 59.0 79.0 109.0 99.0 66.0 34.0 -52.0 -157.0 -114.0 24.0 56.0 23.0 8.0 -11.0 -15.0 -34.0 -59.0 -32.0 4.0 49.0 123.0 176.0 159.0 99.0 9.0 -146.0 -258.0 -246.0 -257.0 -235.0 -146.0 -122.0 -68.0 -15.0 49.0 152.0 138.0 138.0 154.0 88.0 47.0 33.0 53.0 76.0 96.0 91.0 37.0 88.0 133.0 49.0 6.0 -6.0 -5.0 47.0 61.0 39.0 -13.0 -107.0 -151.0 -131.0 -92.0 -87.0 -149.0 -186.0 -174.0 -151.0 -81.0 -5.0 39.0 82.0 136.0 154.0 129.0 114.0 110.0 103.0 85.0 91.0 108.0 62.0 -6.0 -82.0 -210.0 -295.0 -160.0 28.0 51.0 53.0 55.0 11.0 -37.0 -74.0 -33.0 -13.0 -44.0 3.0 64.0 54.0 16.0 -22.0 -41.0 -42.0 -40.0 -17.0 14.0 45.0 68.0 33.0 14.0 37.0 47.0 68.0 47.0 -22.0 -54.0 -83.0 -123.0 -63.0 87.0 154.0 128.0 99.0 61.0 -26.0 -133.0 -125.0 -9.0 70.0 52.0 2.0 0.0 -19.0 -54.0 -61.0 -74.0 -65.0 -51.0 -30.0 22.0 59.0 82.0 106.0 96.0 66.0 46.0 47.0 48.0 36.0 50.0 57.0 -11.0 -114.0 -232.0 -337.0 -304.0 -144.0 2.0 60.0 42.0 29.0 81.0 139.0 134.0 121.0 129.0 107.0 66.0 32.0 -4.0 -91.0 -199.0 -167.0 -74.0 -76.0 -80.0 -55.0 -13.0 77.0 151.0 161.0 117.0 64.0 23.0 -31.0 -48.0 -1.0 19.0 -16.0 -28.0 -15.0 -11.0 15.0 36.0 8.0 18.0 100.0 130.0 77.0 19.0 -68.0 -191.0 -214.0 -79.0 27.0 28.0 30.0 23.0 13.0 -12.0 -42.0 -19.0 -3.0 22.0 56.0 71.0 68.0 -17.0 -108.0 -73.0 7.0 8.0 -4.0 17.0 11.0 -15.0 -30.0 -30.0 -45.0 -80.0 -68.0 0.0 52.0 80.0 92.0 70.0 67.0 65.0 30.0 12.0 2.0 -2.0 -4.0 -23.0 -38.0 -22.0 13.0 7.0 -8.0 10.0 0.0 -39.0 -37.0 8.0 27.0 15.0 -7.0 -71.0 -63.0 4.0 9.0 24.0 15.0 -50.0 -83.0 -71.0 -20.0 11.0 19.0 39.0 32.0 1.0 -14.0 11.0 18.0 15.0 37.0 25.0 39.0 63.0 21.0 -15.0 -15.0 -12.0 -16.0 -12.0 -2.0 11.0 23.0 20.0 15.0 17.0 13.0 13.0 35.0 37.0 -4.0 -29.0 -34.0 -40.0 -55.0 -69.0 -63.0 -63.0 -56.0 -31.0 -22.0 5.0 59.0 87.0 84.0 68.0 66.0 64.0 40.0 -4.0 -50.0 -67.0 -106.0 -106.0 11.0 66.0 31.0 31.0 34.0 8.0 -43.0 -85.0 -76.0 -34.0 -11.0 -7.0 22.0 21.0 -22.0 -17.0 -6.0 -19.0 14.0 34.0 37.0 61.0 74.0 88.0 90.0 75.0 64.0 47.0 12.0 -7.0 -3.0 -10.0 -13.0 -24.0 -68.0 -103.0 -117.0 -122.0 -90.0 -38.0 -19.0 -22.0 -16.0 19.0 62.0 59.0 29.0 25.0 29.0 6.0 -10.0 5.0 32.0 41.0 40.0 30.0 -7.0 -31.0 -12.0 7.0 25.0 29.0 7.0 1.0 -34.0 -78.0 -65.0 -42.0 -25.0 -22.0 -19.0 0.0 21.0 49.0 75.0 79.0 64.0 51.0 2.0 -74.0 -92.0 -72.0 -46.0 -17.0 -21.0 -38.0 -48.0 -68.0 -56.0 1.0 59.0 98.0 106.0 100.0 67.0 -1.0 1.0 40.0 57.0 86.0 58.0 12.0 35.0 25.0 -42.0 -74.0 -62.0 -81.0 -92.0 -25.0 0.0 -45.0 -50.0 -58.0 -60.0 -3.0 34.0 45.0 61.0 84.0 92.0 74.0 57.0 33.0 17.0 1.0 -31.0 -60.0 -80.0 -93.0 -146.0 -182.0 -123.0 -64.0 -22.0 49.0 98.0 111.0 112.0 103.0 88.0 74.0 51.0 24.0 14.0 7.0 0.0 -5.0 -25.0 -50.0 -60.0 -48.0 -46.0 -47.0 -25.0 -29.0 -38.0 -21.0 -26.0 -7.0 41.0 51.0 38.0 19.0 -18.0 -40.0 -11.0 25.0 37.0 37.0 32.0 15.0 -25.0 -59.0 -29.0 37.0 78.0 86.0 72.0 32.0 -12.0 -17.0 -10.0 -9.0 1.0 -19.0 -36.0 -13.0 -1.0 3.0 11.0 22.0 25.0 8.0 -6.0 -25.0 -47.0 -58.0 -50.0 -44.0 -48.0 -36.0 -17.0 7.0 22.0 22.0 30.0 17.0 -10.0 -1.0 31.0 14.0 -13.0 10.0 16.0 28.0 53.0 41.0 29.0 -13.0 -57.0 -58.0 -56.0 -23.0 -8.0 -28.0 -19.0 -16.0 5.0 28.0 -2.0 3.0 41.0 38.0 35.0 39.0 14.0 -7.0 -9.0 -10.0 -11.0 -3.0 9.0 4.0 -14.0 -7.0 26.0 49.0 56.0 66.0 34.0 -23.0 -49.0 -63.0 -62.0 -42.0 -25.0 -13.0 1.0 16.0 19.0 8.0 3.0 10.0 -1.0 -10.0 -6.0 -18.0 -20.0 -22.0 -15.0 9.0 28.0 50.0 54.0 69.0 102.0 70.0 -21.0 -90.0 -124.0 -154.0 -141.0 -67.0 -9.0 15.0 49.0 57.0 46.0 62.0 63.0 54.0 47.0 28.0 7.0 -6.0 -2.0 -1.0 -22.0 -56.0 -73.0 -58.0 -43.0 -16.0 19.0 23.0 28.0 42.0 36.0 20.0 9.0 -3.0 -6.0 5.0 3.0 -1.0 4.0 6.0 19.0 30.0 18.0 -5.0 -38.0 -42.0 -28.0 -28.0 -22.0 -4.0 8.0 6.0 15.0 27.0 16.0 15.0 7.0 -7.0 -4.0 -5.0 0.0 3.0 1.0 13.0 12.0 -16.0 -34.0 -17.0 0.0 6.0 12.0 18.0 26.0 0.0 -30.0 -13.0 10.0 12.0 0.0 -9.0 -10.0 -2.0 -2.0 -9.0 -4.0 21.0 48.0 25.0 11.0 -5.0 -73.0 -84.0 -44.0 -12.0 12.0 28.0 37.0 35.0 31.0 20.0 14.0 25.0 20.0 10.0 17.0 29.0 30.0 0.0 -46.0 -67.0 -62.0 -48.0 -31.0 -23.0 -15.0 -3.0 4.0 18.0 22.0 1.0 -14.0 -15.0 4.0 29.0 35.0 36.0 17.0 -12.0 -22.0 -23.0 -22.0 -4.0 21.0 27.0 17.0 15.0 10.0 27.0 37.0 -13.0 -38.0 -27.0 -23.0 0.0 8.0 6.0 11.0 0.0 -2.0 0.0 -2.0 5.0 2.0 2.0 22.0 27.0 8.0 -15.0 -45.0 -63.0 -29.0 4.0 -3.0 1.0 23.0 37.0 33.0 -1.0 -17.0 15.0 36.0 17.0 2.0 2.0 4.0 -14.0 -60.0 -79.0 -36.0 10.0 30.0 29.0 23.0 37.0 18.0 -32.0 -50.0 -34.0 -10.0 6.0 24.0 31.0 20.0 18.0 19.0 13.0 7.0 8.0 9.0 -7.0 -21.0 -7.0 3.0 -2.0 -12.0 -22.0 -17.0 -16.0 -14.0 -2.0 10.0 22.0 23.0 17.0 -7.0 -42.0 -38.0 -10.0 -1.0 7.0 27.0 17.0 14.0 9.0 -13.0 13.0 12.0 -23.0 -9.0 8.0 14.0 21.0 31.0 16.0 -25.0 -15.0 0.0 -14.0 -21.0 -9.0 4.0 10.0 22.0 33.0 46.0 42.0 -20.0 -52.0 -43.0 -73.0 -79.0 -46.0 -15.0 28.0 42.0 29.0 19.0 2.0 18.0 48.0 49.0 36.0 11.0 0.0 9.0 -6.0 -55.0 -77.0 -53.0 -32.0 -4.0 19.0 17.0 30.0 51.0 36.0 -4.0 -11.0 10.0 8.0 2.0 14.0 14.0 0.0 -9.0 -15.0 -41.0 -59.0 -26.0 -1.0 2.0 21.0 20.0 8.0 17.0 18.0 9.0 17.0 9.0 -4.0 8.0 -9.0 -33.0 -23.0 -11.0 2.0 10.0 0.0 1.0 30.0 38.0 15.0 -15.0 -65.0 -73.0 -39.0 -19.0 14.0 44.0 58.0 55.0 30.0 27.0 23.0 0.0 -11.0 -20.0 -40.0 -48.0 -12.0 16.0 20.0 29.0 7.0 -5.0 31.0 35.0 2.0 -27.0 -57.0 -66.0 -65.0 -48.0 -8.0 23.0 35.0 40.0 63.0 88.0 88.0 66.0 -19.0 -156.0 -206.0 -132.0 -45.0 11.0 39.0 48.0 69.0 64.0 42.0 36.0 29.0 21.0 9.0 -3.0 -15.0 -27.0 -32.0 -30.0 -5.0 16.0 14.0 22.0 21.0 11.0 13.0 9.0 3.0 -2.0 -3.0 -4.0 -14.0 -9.0 1.0 1.0 3.0 12.0 10.0 -5.0 -29.0 -32.0 0.0 15.0 -1.0 1.0 15.0 18.0 11.0 -38.0 -75.0 -36.0 14.0 35.0 14.0 -7.0 12.0 22.0 18.0 3.0 -2.0 19.0 6.0 -11.0 -15.0 -20.0 -14.0 -30.0 -35.0 -11.0 15.0 38.0 54.0 46.0 25.0 10.0 -2.0 11.0 24.0 -15.0 -63.0 -76.0 -60.0 -27.0 3.0 22.0 36.0 34.0 25.0 25.0 19.0 15.0 15.0 17.0 24.0 18.0 4.0 -11.0 -15.0 -4.0 -19.0 -41.0 -38.0 -40.0 -35.0 -20.0 -12.0 -7.0 0.0 16.0 15.0 8.0 16.0 21.0 18.0 5.0 -3.0 -5.0 -14.0 -13.0 0.0 3.0 -8.0 -16.0 -4.0 18.0 30.0 20.0 10.0 0.0 -2.0 8.0 1.0 2.0 12.0 -2.0 -7.0 1.0 -6.0 -9.0 -6.0 1.0 6.0 0.0 5.0 7.0 -3.0 0.0 21.0 19.0 -4.0 -11.0 -25.0 -61.0 -73.0 -62.0 -28.0 24.0 47.0 57.0 59.0 53.0 50.0 49.0 41.0 -22.0 -83.0 -79.0 -45.0 -6.0 8.0 18.0 25.0 17.0 13.0 6.0 5.0 1.0 -3.0 3.0 0.0 -1.0 -8.0 -21.0 -6.0 -2.0 -14.0 -4.0 -2.0 -11.0 0.0 15.0 18.0 18.0 13.0 9.0 5.0 0.0 -7.0 -15.0 -20.0 -12.0 0.0 -5.0 -9.0 12.0 39.0 48.0 40.0 16.0 -5.0 -32.0 -73.0 -79.0 -71.0 -77.0 -46.0 -5.0 31.0 59.0 28.0 3.0 28.0 48.0 69.0 81.0 24.0 -59.0 -70.0 -39.0 -10.0 17.0 26.0 33.0 40.0 25.0 6.0 -1.0 3.0 11.0 0.0 -11.0 0.0 0.0 -15.0 -19.0 -7.0 -6.0 -6.0 -1.0 -3.0 3.0 12.0 -7.0 -27.0 -19.0 -8.0 2.0 16.0 25.0 44.0 27.0 -27.0 -59.0 -88.0 -90.0 -42.0 -4.0 22.0 40.0 39.0 41.0 37.0 21.0 17.0 25.0 31.0 19.0 -5.0 -7.0 0.0 -13.0 -21.0 -20.0 -20.0 -14.0 -5.0 5.0 2.0 0.0 4.0 2.0 2.0 0.0 0.0 3.0 7.0 14.0 4.0 -12.0 -15.0 -13.0 -6.0 -5.0 -21.0 -20.0 0.0 1.0 -2.0 1.0 13.0 38.0 36.0 10.0 -5.0 2.0 28.0 18.0 -32.0 -61.0 -51.0 -36.0 -12.0 38.0 65.0 57.0 44.0 18.0 -6.0 -18.0 -17.0 -14.0 -16.0 0.0 9.0 2.0 3.0 -4.0 -8.0 16.0 24.0 6.0 3.0 5.0 7.0 26.0 24.0 -18.0 -66.0 -74.0 -42.0 -18.0 -9.0 0.0 6.0 9.0 7.0 6.0 7.0 5.0 5.0 3.0 1.0 0.0 -1.0 0.0 -3.0 -9.0 -6.0 2.0 7.0 5.0 3.0 11.0 31.0 45.0 29.0 12.0 -2.0 -29.0 -31.0 -21.0 -29.0 -25.0 -17.0 -19.0 0.0 14.0 12.0 32.0 28.0 -6.0 -25.0 -26.0 -14.0 7.0 29.0 15.0 -22.0 -16.0 2.0 8.0 15.0 5.0 -5.0 7.0 18.0 13.0 10.0 16.0 17.0 2.0 2.0 23.0 36.0 43.0 21.0 -37.0 -64.0 -50.0 -35.0 -30.0 -21.0 0.0 10.0 8.0 9.0 6.0 3.0 3.0 10.0 18.0 16.0 25.0 40.0 24.0 -2.0 -35.0 -78.0 -78.0 -56.0 -38.0 -10.0 9.0 29.0 31.0 25.0 36.0 42.0 54.0 50.0 14.0 -21.0 -30.0 -15.0 -10.0 -12.0 -2.0 13.0 20.0 -4.0 -40.0 -46.0 -36.0 -18.0 8.0 24.0 31.0 36.0 23.0 10.0 11.0 14.0 24.0 33.0 24.0 8.0 -8.0 -29.0 -66.0 -89.0 -56.0 -23.0 -22.0 -6.0 1.0 8.0 37.0 34.0 7.0 6.0 18.0 4.0 -17.0 -16.0 -6.0 16.0 23.0 7.0 10.0 16.0 15.0 6.0 -13.0 -21.0 -17.0 -12.0 -4.0 0.0 -11.0 -2.0 17.0 16.0 19.0 19.0 12.0 15.0 16.0 15.0 6.0 10.0 14.0 -3.0 -3.0 -13.0 -46.0 -49.0 -52.0 -50.0 -25.0 -18.0 3.0 54.0 64.0 31.0 2.0 -9.0 -10.0 -1.0 23.0 41.0 28.0 25.0 18.0 -44.0 -72.0 -34.0 -14.0 -3.0 13.0 4.0 -24.0 -47.0 -32.0 1.0 29.0 47.0 36.0 36.0 45.0 33.0 21.0 1.0 -10.0 -7.0 -4.0 -2.0 3.0 10.0 11.0 9.0 -1.0 -16.0 -18.0 -29.0 -46.0 -42.0 -25.0 -8.0 -1.0 -11.0 -6.0 2.0 1.0 32.0 49.0 43.0 64.0 75.0 53.0 4.0 -50.0 -124.0 -201.0 -180.0 -92.0 -13.0 48.0 64.0 68.0 76.0 66.0 56.0 40.0 4.0 -14.0 -5.0 -7.0 6.0 30.0 26.0 24.0 30.0 51.0 51.0 13.0 3.0 -14.0 -42.0 -37.0 -37.0 -88.0 -166.0 -160.0 -82.0 3.0 72.0 98.0 129.0 132.0 72.0 20.0 3.0 6.0 -9.0 -28.0 13.0 58.0 16.0 -23.0 -11.0 -6.0 11.0 22.0 -47.0 -123.0 -104.0 -55.0 -32.0 -9.0 6.0 13.0 34.0 41.0 35.0 43.0 39.0 18.0 12.0 27.0 43.0 32.0 10.0 -3.0 -25.0 -24.0 -11.0 -37.0 -80.0 -110.0 -100.0 -56.0 -3.0 45.0 75.0 78.0 79.0 74.0 44.0 24.0 23.0 17.0 6.0 -3.0 -4.0 -10.0 -23.0 -24.0 -23.0 -13.0 -4.0 -6.0 -10.0 0.0 28.0 41.0 26.0 -45.0 -130.0 -134.0 -94.0 -38.0 12.0 29.0 51.0 65.0 36.0 12.0 18.0 15.0 28.0 49.0 18.0 -25.0 -50.0 -46.0 -11.0 7.0 12.0 12.0 18.0 45.0 53.0 49.0 47.0 33.0 20.0 -9.0 -56.0 -73.0 -50.0 -33.0 -21.0 18.0 45.0 32.0 14.0 -5.0 -27.0 -9.0 9.0 -14.0 -10.0 40.0 63.0 24.0 -33.0 -84.0 -101.0 -59.0 -30.0 -6.0 38.0 39.0 30.0 27.0 14.0 17.0 14.0 -7.0 -37.0 -30.0 -12.0 -7.0 26.0 32.0 26.0 47.0 49.0 41.0 20.0 9.0 20.0 13.0 -18.0 -74.0 -110.0 -83.0 -57.0 -53.0 -29.0 -1.0 -8.0 -16.0 -7.0 7.0 43.0 61.0 52.0 56.0 43.0 30.0 38.0 40.0 48.0 42.0 12.0 -4.0 -19.0 -22.0 -14.0 -41.0 -83.0 -95.0 -39.0 26.0 3.0 -22.0 -7.0 9.0 34.0 24.0 -42.0 -78.0 -29.0 20.0 48.0 88.0 96.0 83.0 71.0 25.0 -30.0 -28.0 -19.0 -60.0 -69.0 -61.0 -68.0 -36.0 -1.0 20.0 38.0 26.0 23.0 24.0 10.0 4.0 19.0 41.0 17.0 -4.0 -2.0 -21.0 -16.0 -1.0 0.0 -2.0 -31.0 -44.0 -32.0 -27.0 -18.0 -4.0 4.0 11.0 20.0 38.0 48.0 25.0 8.0 -10.0 -40.0 -29.0 -18.0 -46.0 -57.0 -20.0 20.0 41.0 75.0 112.0 123.0 98.0 60.0 25.0 -39.0 -107.0 -116.0 -117.0 -148.0 -169.0 -145.0 -63.0 10.0 48.0 85.0 116.0 124.0 106.0 81.0 61.0 31.0 11.0 28.0 22.0 -31.0 -49.0 -15.0 0.0 0.0 -8.0 -34.0 -38.0 -21.0 2.0 22.0 13.0 22.0 42.0 20.0 4.0 12.0 1.0 -54.0 -103.0 -93.0 -68.0 -32.0 8.0 22.0 55.0 74.0 62.0 51.0 16.0 -12.0 -19.0 -16.0 -24.0 -60.0 -83.0 -67.0 -27.0 2.0 8.0 22.0 48.0 59.0 56.0 50.0 42.0 36.0 30.0 24.0 16.0 6.0 -24.0 -53.0 -35.0 -2.0 12.0 -3.0 -27.0 -14.0 2.0 6.0 6.0 -4.0 -16.0 -25.0 -16.0 0.0 -3.0 -17.0 -22.0 -3.0 18.0 27.0 42.0 30.0 -14.0 -38.0 -41.0 -30.0 12.0 33.0 -1.0 -34.0 -46.0 -53.0 -61.0 -62.0 -23.0 45.0 75.0 80.0 103.0 137.0 159.0 114.0 16.0 -69.0 -86.0 -63.0 -86.0 -78.0 -33.0 -59.0 -95.0 -84.0 -44.0 3.0 43.0 71.0 77.0 65.0 55.0 55.0 44.0 24.0 14.0 -10.0 -31.0 -9.0 14.0 35.0 47.0 20.0 -57.0 -141.0 -115.0 -36.0 -7.0 -20.0 -67.0 -94.0 -71.0 -46.0 -48.0 -34.0 29.0 82.0 102.0 107.0 96.0 105.0 101.0 79.0 75.0 38.0 -6.0 -27.0 -30.0 -6.0 -20.0 -35.0 2.0 -31.0 -104.0 -88.0 -58.0 -48.0 -35.0 -30.0 -6.0 13.0 20.0 25.0 19.0 33.0 59.0 90.0 125.0 112.0 70.0 0.0 -93.0 -123.0 -82.0 -41.0 -56.0 -45.0 -42.0 -76.0 -36.0 -27.0 -43.0 5.0 33.0 45.0 56.0 75.0 104.0 86.0 39.0 20.0 27.0 17.0 6.0 -12.0 -36.0 -10.0 19.0 11.0 -20.0 -30.0 -29.0 -67.0 -68.0 -22.0 5.0 -16.0 -96.0 -126.0 -48.0 4.0 -22.0 -17.0 23.0 37.0 51.0 54.0 31.0 36.0 48.0 50.0 69.0 66.0 60.0 55.0 31.0 16.0 2.0 4.0 11.0 -17.0 -22.0 -6.0 -48.0 -87.0 -83.0 -65.0 -49.0 -45.0 -3.0 58.0 68.0 80.0 91.0 44.0 -38.0 -82.0 -31.0 29.0 33.0 19.0 -56.0 -139.0 -123.0 -131.0 -166.0 -91.0 3.0 23.0 44.0 76.0 42.0 3.0 12.0 40.0 86.0 121.0 121.0 121.0 137.0 137.0 111.0 58.0 7.0 -22.0 -48.0 -28.0 -25.0 -79.0 -108.0 -121.0 -67.0 -10.0 -21.0 -14.0 -51.0 -114.0 -111.0 -35.0 27.0 28.0 54.0 52.0 31.0 39.0 10.0 6.0 34.0 23.0 30.0 41.0 11.0 -7.0 -71.0 -130.0 -66.0 1.0 18.0 53.0 81.0 70.0 44.0 14.0 -16.0 -43.0 -43.0 8.0 39.0 30.0 45.0 37.0 1.0 -24.0 -42.0 -36.0 -40.0 -49.0 -35.0 -28.0 -40.0 -81.0 -95.0 -27.0 14.0 3.0 9.0 -16.0 -39.0 -2.0 47.0 86.0 86.0 81.0 88.0 81.0 93.0 97.0 71.0 5.0 -115.0 -154.0 -109.0 -94.0 -43.0 13.0 1.0 31.0 62.0 16.0 23.0 79.0 29.0 -47.0 -16.0 -3.0 -28.0 4.0 10.0 31.0 108.0 145.0 109.0 -2.0 -81.0 -119.0 -186.0 -117.0 4.0 -30.0 -52.0 -8.0 -1.0 -8.0 3.0 3.0 -28.0 -4.0 30.0 31.0 54.0 52.0 20.0 -36.0 -67.0 -22.0 29.0 57.0 62.0 60.0 55.0 63.0 102.0 108.0 81.0 44.0 -32.0 -127.0 -177.0 -158.0 -101.0 -37.0 -5.0 -29.0 -52.0 -62.0 -94.0 -89.0 -16.0 81.0 138.0 109.0 70.0 56.0 -13.0 -95.0 -49.0 52.0 21.0 -35.0 13.0 49.0 35.0 15.0 -4.0 -12.0 0.0 13.0 13.0 27.0 49.0 54.0 42.0 36.0 38.0 12.0 -25.0 -79.0 -102.0 -98.0 -192.0 -277.0 -179.0 -14.0 79.0 120.0 155.0 203.0 207.0 161.0 79.0 1.0 28.0 56.0 17.0 -6.0 -29.0 -55.0 -84.0 -86.0 -9.0 11.0 -64.0 -95.0 -98.0 -90.0 -29.0 50.0 115.0 144.0 142.0 84.0 -22.0 -125.0 -202.0 -139.0 7.0 58.0 56.0 35.0 -6.0 -41.0 -49.0 -3.0 34.0 40.0 38.0 31.0 17.0 -17.0 -18.0 9.0 34.0 63.0 41.0 -6.0 -52.0 -91.0 -124.0 -119.0 -5.0 71.0 61.0 74.0 69.0 52.0 43.0 18.0 -1.0 -40.0 -115.0 -168.0 -172.0 -140.0 -55.0 11.0 29.0 99.0 197.0 224.0 181.0 124.0 45.0 -116.0 -257.0 -199.0 -10.0 85.0 118.0 148.0 99.0 50.0 19.0 -40.0 -78.0 -78.0 -44.0 -13.0 5.0 9.0 -19.0 -59.0 -119.0 -107.0 40.0 158.0 185.0 170.0 102.0 -10.0 -177.0 -302.0 -206.0 -32.0 26.0 61.0 102.0 100.0 93.0 63.0 -34.0 -118.0 -91.0 -42.0 -40.0 -4.0 43.0 58.0 85.0 88.0 61.0 52.0 50.0 49.0 53.0 75.0 105.0 79.0 9.0 -23.0 -80.0 -179.0 -170.0 -124.0 -175.0 -200.0 -127.0 -72.0 -79.0 -50.0 12.0 63.0 95.0 109.0 118.0 95.0 59.0 33.0 -4.0 -5.0 48.0 80.0 88.0 84.0 6.0 -66.0 -31.0 -3.0 -25.0 -45.0 -53.0 -21.0 -28.0 -61.0 -26.0 -13.0 -24.0 1.0 23.0 42.0 28.0 -12.0 -20.0 17.0 75.0 114.0 120.0 57.0 -69.0 -94.0 17.0 53.0 30.0 68.0 64.0 -1.0 -83.0 -98.0 -71.0 -84.0 -82.0 -38.0 74.0 136.0 64.0 10.0 -31.0 -107.0 -100.0 -16.0 12.0 0.0 -22.0 -50.0 -53.0 -54.0 -23.0 15.0 29.0 78.0 120.0 101.0 55.0 42.0 32.0 -28.0 -60.0 -30.0 -8.0 -5.0 0.0 10.0 17.0 31.0 63.0 72.0 20.0 -37.0 -47.0 -84.0 -131.0 -79.0 -12.0 -3.0 14.0 39.0 16.0 -3.0 18.0 38.0 22.0 -10.0 -36.0 -76.0 -150.0 -169.0 -66.0 14.0 41.0 78.0 82.0 104.0 104.0 57.0 54.0 49.0 29.0 53.0 115.0 151.0 101.0 -8.0 -89.0 -178.0 -365.0 -417.0 -133.0 103.0 114.0 135.0 129.0 83.0 44.0 -16.0 -43.0 0.0 89.0 117.0 112.0 134.0 98.0 23.0 -15.0 -4.0 -21.0 -94.0 -130.0 -122.0 -109.0 -100.0 -85.0 -53.0 -31.0 -39.0 -19.0 47.0 69.0 81.0 121.0 108.0 60.0 34.0 0.0 -60.0 -57.0 -5.0 0.0 -11.0 -13.0 5.0 33.0 36.0 64.0 103.0 84.0 7.0 -86.0 -161.0 -199.0 -162.0 -74.0 -45.0 -35.0 14.0 17.0 -23.0 -34.0 -19.0 22.0 85.0 122.0 133.0 151.0 167.0 136.0 70.0 38.0 -14.0 -92.0 -117.0 -128.0 -114.0 -76.0 -97.0 -117.0 -77.0 -32.0 16.0 64.0 98.0 108.0 47.0 1.0 13.0 5.0 1.0 9.0 29.0 50.0 24.0 6.0 27.0 67.0 83.0 40.0 2.0 -50.0 -149.0 -215.0 -129.0 56.0 117.0 85.0 51.0 20.0 39.0 51.0 16.0 -39.0 -67.0 -51.0 -49.0 -46.0 -15.0 -12.0 -6.0 13.0 -5.0 15.0 66.0 78.0 80.0 42.0 1.0 -8.0 -42.0 -48.0 -6.0 -3.0 -25.0 -48.0 -63.0 -57.0 -75.0 -91.0 -49.0 5.0 52.0 118.0 125.0 41.0 -31.0 -108.0 -175.0 -115.0 -13.0 24.0 50.0 61.0 54.0 59.0 64.0 90.0 104.0 70.0 63.0 103.0 96.0 45.0 -6.0 -74.0 -112.0 -148.0 -169.0 -82.0 -22.0 -26.0 12.0 29.0 10.0 0.0 10.0 40.0 65.0 82.0 96.0 97.0 43.0 -67.0 -141.0 -131.0 -88.0 -89.0 -129.0 -98.0 7.0 78.0 112.0 133.0 135.0 124.0 85.0 -3.0 -75.0 -26.0 47.0 42.0 0.0 -52.0 -88.0 -116.0 -105.0 -19.0 5.0 -21.0 33.0 46.0 -17.0 -2.0 48.0 47.0 11.0 5.0 30.0 3.0 -22.0 -34.0 -66.0 -25.0 25.0 10.0 1.0 20.0 43.0 65.0 111.0 132.0 88.0 25.0 -75.0 -174.0 -142.0 -47.0 -24.0 -42.0 -70.0 -80.0 -39.0 -4.0 11.0 49.0 99.0 117.0 101.0 86.0 31.0 -64.0 -92.0 -55.0 -28.0 5.0 19.0 3.0 20.0 32.0 23.0 43.0 23.0 -67.0 -140.0 -138.0 -125.0 -113.0 -9.0 80.0 72.0 65.0 28.0 -58.0 -101.0 -54.0 30.0 70.0 99.0 123.0 133.0 178.0 214.0 184.0 93.0 -10.0 -81.0 -119.0 -124.0 -116.0 -114.0 -100.0 -58.0 -56.0 -100.0 -116.0 -85.0 6.0 80.0 107.0 141.0 133.0 70.0 7.0 -12.0 -18.0 -35.0 -18.0 0.0 -33.0 -56.0 -53.0 -38.0 7.0 45.0 63.0 68.0 31.0 -7.0 4.0 17.0 -20.0 -61.0 -61.0 -59.0 -44.0 -23.0 -25.0 -25.0 -30.0 -25.0 -8.0 -10.0 17.0 85.0 124.0 114.0 71.0 0.0 -68.0 -63.0 1.0 42.0 39.0 14.0 -13.0 -47.0 -107.0 -141.0 -101.0 -49.0 -35.0 -18.0 38.0 92.0 105.0 96.0 78.0 74.0 96.0 87.0 53.0 12.0 3.0 18.0 -40.0 -77.0 -46.0 -60.0 -82.0 -100.0 -100.0 -68.0 -28.0 44.0 85.0 59.0 40.0 6.0 -64.0 -76.0 5.0 79.0 63.0 1.0 -40.0 -34.0 -8.0 -5.0 9.0 37.0 51.0 56.0 34.0 20.0 46.0 63.0 47.0 14.0 -22.0 -85.0 -176.0 -177.0 -68.0 14.0 48.0 45.0 21.0 15.0 3.0 -4.0 2.0 2.0 -19.0 -50.0 -45.0 -4.0 32.0 41.0 40.0 44.0 55.0 69.0 73.0 77.0 68.0 64.0 61.0 6.0 -55.0 -91.0 -147.0 -186.0 -140.0 -89.0 -64.0 -27.0 -37.0 -40.0 4.0 38.0 92.0 123.0 115.0 129.0 102.0 58.0 50.0 31.0 -8.0 -37.0 -53.0 -75.0 -95.0 -80.0 -52.0 -51.0 -53.0 -11.0 59.0 100.0 99.0 90.0 67.0 8.0 -38.0 -20.0 14.0 10.0 -25.0 -66.0 -75.0 -95.0 -103.0 -59.0 -15.0 34.0 38.0 3.0 15.0 44.0 49.0 44.0 56.0 58.0 43.0 37.0 22.0 -6.0 -23.0 -20.0 -16.0 -32.0 -54.0 -52.0 -41.0 -24.0 37.0 75.0 20.0 -19.0 -2.0 -18.0 -44.0 -20.0 19.0 22.0 1.0 -1.0 -28.0 -75.0 -54.0 7.0 50.0 75.0 68.0 48.0 39.0 23.0 36.0 36.0 -6.0 -16.0 -12.0 -38.0 -72.0 -76.0 -68.0 -58.0 -53.0 -55.0 -35.0 -3.0 23.0 48.0 76.0 97.0 93.0 80.0 58.0 29.0 8.0 9.0 34.0 23.0 -24.0 -28.0 0.0 -20.0 -62.0 -80.0 -114.0 -161.0 -149.0 -69.0 -5.0 45.0 86.0 50.0 17.0 -5.0 -48.0 -12.0 48.0 58.0 71.0 93.0 97.0 73.0 39.0 12.0 -4.0 -19.0 -14.0 -3.0 -35.0 -54.0 -33.0 -28.0 -24.0 -19.0 -21.0 -10.0 9.0 24.0 31.0 28.0 19.0 14.0 13.0 20.0 26.0 16.0 -8.0 -34.0 -23.0 -5.0 -1.0 39.0 50.0 -6.0 -24.0 -8.0 -18.0 -36.0 -47.0 -49.0 -44.0 -57.0 -92.0 -96.0 -65.0 -28.0 25.0 97.0 130.0 108.0 88.0 68.0 36.0 18.0 -9.0 -43.0 -51.0 -21.0 4.0 -11.0 -17.0 -2.0 11.0 13.0 -10.0 -13.0 -6.0 -27.0 -18.0 8.0 17.0 28.0 26.0 32.0 49.0 47.0 31.0 4.0 -7.0 -13.0 -17.0 10.0 6.0 -55.0 -96.0 -122.0 -131.0 -82.0 -28.0 -1.0 32.0 36.0 6.0 43.0 83.0 17.0 -9.0 38.0 53.0 59.0 59.0 44.0 38.0 20.0 -14.0 -20.0 -15.0 -39.0 -42.0 -34.0 -36.0 -5.0 8.0 8.0 17.0 -6.0 3.0 2.0 -47.0 -33.0 5.0 15.0 27.0 35.0 32.0 37.0 37.0 32.0 37.0 34.0 21.0 -1.0 -28.0 -42.0 -31.0 -20.0 -45.0 -68.0 -67.0 -60.0 -22.0 20.0 12.0 -33.0 -73.0 -54.0 -17.0 2.0 31.0 49.0 61.0 60.0 50.0 37.0 20.0 29.0 42.0 33.0 17.0 9.0 16.0 12.0 -8.0 -16.0 -18.0 -42.0 -51.0 -37.0 -40.0 -29.0 -11.0 -14.0 -5.0 13.0 21.0 4.0 -12.0 9.0 8.0 -24.0 -15.0 7.0 15.0 20.0 14.0 19.0 23.0 20.0 38.0 32.0 -22.0 -75.0 -70.0 -40.0 -29.0 -11.0 18.0 42.0 37.0 27.0 34.0 27.0 15.0 10.0 11.0 16.0 25.0 27.0 -2.0 -34.0 -33.0 -17.0 -22.0 -35.0 -19.0 -16.0 -39.0 -28.0 9.0 34.0 29.0 19.0 0.0 -38.0 -30.0 1.0 11.0 19.0 16.0 12.0 18.0 19.0 19.0 8.0 -1.0 7.0 6.0 -15.0 -22.0 -12.0 -6.0 4.0 5.0 7.0 16.0 4.0 5.0 32.0 50.0 55.0 23.0 -39.0 -89.0 -125.0 -108.0 -58.0 -22.0 21.0 40.0 42.0 45.0 27.0 21.0 18.0 6.0 11.0 16.0 8.0 -2.0 -3.0 0.0 -1.0 -1.0 0.0 -8.0 -3.0 46.0 77.0 41.0 -1.0 -19.0 -29.0 -44.0 -57.0 -87.0 -129.0 -112.0 -32.0 48.0 65.0 27.0 18.0 38.0 55.0 60.0 50.0 46.0 41.0 25.0 14.0 5.0 -2.0 -6.0 -15.0 -18.0 -14.0 -14.0 -10.0 -10.0 -12.0 -11.0 -11.0 -13.0 -13.0 -5.0 -4.0 -10.0 -7.0 0.0 -4.0 -9.0 0.0 2.0 0.0 4.0 3.0 4.0 4.0 -1.0 0.0 2.0 4.0 3.0 3.0 4.0 2.0 6.0 13.0 7.0 -10.0 -17.0 -8.0 -1.0 0.0 0.0 -5.0 -2.0 28.0 43.0 27.0 -5.0 -33.0 -9.0 22.0 24.0 13.0 -35.0 -106.0 -137.0 -94.0 -20.0 17.0 46.0 78.0 74.0 32.0 12.0 64.0 104.0 76.0 11.0 -103.0 -159.0 -80.0 -15.0 23.0 65.0 58.0 51.0 34.0 10.0 15.0 9.0 5.0 6.0 0.0 -4.0 -13.0 -13.0 -13.0 -14.0 -10.0 -12.0 -4.0 -6.0 -28.0 -23.0 -12.0 -11.0 -3.0 0.0 15.0 27.0 10.0 -17.0 -37.0 -29.0 -9.0 2.0 -6.0 -4.0 13.0 7.0 8.0 9.0 2.0 2.0 -7.0 -5.0 4.0 14.0 21.0 8.0 -5.0 -3.0 12.0 18.0 5.0 -2.0 2.0 17.0 13.0 -23.0 -47.0 -37.0 -21.0 -9.0 21.0 48.0 21.0 -5.0 4.0 4.0 8.0 31.0 35.0 25.0 43.0 51.0 -17.0 -104.0 -130.0 -117.0 -67.0 9.0 43.0 56.0 79.0 71.0 37.0 -13.0 -45.0 -37.0 -3.0 30.0 27.0 26.0 19.0 -8.0 -15.0 -21.0 -25.0 -21.0 -6.0 6.0 7.0 12.0 8.0 5.0 3.0 -6.0 -2.0 2.0 11.0 6.0 -5.0 4.0 4.0 -4.0 -8.0 -14.0 -13.0 -21.0 -32.0 -16.0 0.0 6.0 21.0 25.0 18.0 14.0 9.0 0.0 1.0 2.0 -4.0 -3.0 0.0 -2.0 -2.0 -6.0 -7.0 0.0 2.0 0.0 3.0 6.0 14.0 21.0 29.0 29.0 3.0 -22.0 -40.0 -43.0 -25.0 -7.0 -11.0 -38.0 -40.0 -22.0 -21.0 0.0 28.0 46.0 55.0 47.0 49.0 35.0 14.0 10.0 -1.0 -14.0 -33.0 -50.0 -46.0 -27.0 9.0 18.0 12.0 4.0 -13.0 -1.0 8.0 11.0 20.0 9.0 0.0 0.0 0.0 1.0 0.0 -3.0 -4.0 -5.0 -3.0 -3.0 -4.0 -1.0 1.0 0.0 -2.0 -2.0 -6.0 -8.0 2.0 0.0 -13.0 -4.0 5.0 0.0 1.0 -2.0 -9.0 -1.0 6.0 4.0 10.0 15.0 5.0 1.0 3.0 6.0 9.0 0.0 -9.0 -22.0 -29.0 -11.0 5.0 13.0 11.0 8.0 13.0 17.0 22.0 17.0 -6.0 -15.0 20.0 45.0 9.0 -48.0 -69.0 -60.0 -30.0 24.0 39.0 -2.0 -28.0 -22.0 -30.0 -38.0 -11.0 20.0 34.0 51.0 50.0 37.0 34.0 27.0 20.0 18.0 8.0 -9.0 -15.0 -14.0 -16.0 -11.0 -9.0 -11.0 -7.0 -8.0 -11.0 -15.0 -22.0 -16.0 -5.0 -8.0 -3.0 2.0 -1.0 10.0 15.0 10.0 4.0 -12.0 -19.0 -12.0 -11.0 -10.0 0.0 10.0 11.0 12.0 20.0 16.0 7.0 -1.0 -4.0 -1.0 -4.0 -3.0 -5.0 -13.0 -2.0 9.0 7.0 9.0 10.0 0.0 -7.0 -7.0 1.0 12.0 14.0 10.0 0.0 -6.0 -5.0 0.0 1.0 4.0 18.0 4.0 -35.0 -19.0 23.0 -12.0 -68.0 -59.0 -30.0 -1.0 28.0 37.0 44.0 47.0 28.0 15.0 11.0 -2.0 -4.0 0.0 -8.0 -9.0 9.0 26.0 23.0 12.0 -5.0 -22.0 -33.0 -31.0 -10.0 0.0 -4.0 0.0 0.0 -2.0 1.0 -2.0 -7.0 0.0 4.0 6.0 22.0 29.0 15.0 1.0 3.0 0.0 -28.0 -53.0 -53.0 -34.0 -16.0 0.0 19.0 21.0 16.0 17.0 12.0 6.0 2.0 10.0 11.0 0.0 0.0 0.0 -1.0 2.0 0.0 0.0 1.0 1.0 1.0 0.0 -2.0 -3.0 -1.0 0.0 1.0 0.0 1.0 4.0 9.0 4.0 -13.0 -28.0 -27.0 -3.0 20.0 20.0 21.0 8.0 -23.0 -20.0 0.0 -3.0 -14.0 -31.0 -38.0 -14.0 11.0 20.0 24.0 27.0 21.0 24.0 37.0 28.0 10.0 9.0 1.0 -18.0 -30.0 -29.0 -22.0 -16.0 0.0 12.0 9.0 14.0 20.0 15.0 6.0 0.0 -2.0 -2.0 -3.0 -3.0 -1.0 -2.0 -3.0 -3.0 -4.0 -6.0 -5.0 -5.0 -5.0 -4.0 -4.0 -7.0 -9.0 -2.0 1.0 0.0 3.0 0.0 0.0 0.0 0.0 3.0 0.0 0.0 0.0 -3.0 0.0 0.0 0.0 -3.0 -7.0 8.0 12.0 -1.0 3.0 9.0 11.0 6.0 -8.0 -3.0 6.0 9.0 6.0 -5.0 -10.0 -5.0 -17.0 -37.0 -34.0 -18.0 11.0 22.0 -12.0 -19.0 0.0 -11.0 -6.0 18.0 36.0 50.0 50.0 35.0 2.0 -16.0 -7.0 -9.0 -7.0 0.0 0.0 -1.0 -6.0 -9.0 0.0 4.0 -1.0 1.0 5.0 3.0 1.0 -1.0 -1.0 0.0 -1.0 -1.0 0.0 -1.0 -2.0 -6.0 -6.0 -6.0 -9.0 -5.0 -11.0 -14.0 -5.0 -1.0 6.0 4.0 -2.0 0.0 5.0 8.0 6.0 6.0 5.0 2.0 1.0 1.0 2.0 1.0 2.0 2.0 0.0 0.0 -1.0 -2.0 -5.0 -11.0 -1.0 9.0 9.0 18.0 22.0 26.0 29.0 3.0 -22.0 -38.0 -44.0 -41.0 -52.0 -37.0 -6.0 0.0 12.0 24.0 19.0 24.0 34.0 38.0 41.0 42.0 43.0 40.0 18.0 -33.0 -80.0 -95.0 -91.0 -60.0 -20.0 7.0 34.0 39.0 33.0 30.0 22.0 21.0 16.0 12.0 8.0 -4.0 -5.0 -2.0 -3.0 0.0 -3.0 -4.0 -4.0 -7.0 -5.0 -9.0 -14.0 -7.0 -3.0 -5.0 2.0 -2.0 -12.0 0.0 4.0 3.0 5.0 -2.0 -8.0 -4.0 0.0 2.0 10.0 12.0 10.0 10.0 8.0 5.0 3.0 5.0 2.0 1.0 5.0 0.0 -1.0 0.0 -7.0 -5.0 1.0 0.0 3.0 17.0 7.0 -9.0 2.0 14.0 15.0 18.0 0.0 -33.0 -50.0 -43.0 -20.0 -3.0 -7.0 -5.0 7.0 18.0 25.0 16.0 7.0 2.0 6.0 16.0 1.0 -6.0 -7.0 -25.0 -24.0 -16.0 -37.0 -48.0 -14.0 25.0 33.0 29.0 24.0 25.0 28.0 22.0 20.0 16.0 8.0 2.0 -1.0 5.0 1.0 -11.0 -7.0 -6.0 -8.0 -6.0 -9.0 -10.0 -8.0 -8.0 -12.0 -12.0 -2.0 0.0 -3.0 0.0 0.0 -1.0 -4.0 -9.0 0.0 0.0 -8.0 -4.0 3.0 3.0 2.0 4.0 0.0 0.0 2.0 0.0 -3.0 -10.0 -10.0 0.0 7.0 3.0 0.0 10.0 22.0 34.0 26.0 -2.0 -15.0 -18.0 -17.0 -12.0 -6.0 4.0 6.0 17.0 34.0 31.0 20.0 -4.0 -16.0 -12.0 -36.0 -51.0 -39.0 -6.0 34.0 28.0 -6.0 -24.0 -23.0 -11.0 -4.0 -1.0 6.0 16.0 10.0 9.0 27.0 17.0 6.0 17.0 6.0 0.0 9.0 5.0 0.0 -3.0 -4.0 -9.0 -10.0 -1.0 -1.0 -2.0 0.0 0.0 1.0 0.0 -1.0 -1.0 -3.0 -3.0 -6.0 -12.0 -9.0 -2.0 1.0 -3.0 -5.0 7.0 16.0 20.0 12.0 2.0 20.0 18.0 -17.0 -35.0 -28.0 -14.0 -7.0 0.0 6.0 2.0 1.0 1.0 -4.0 -3.0 7.0 6.0 -4.0 -3.0 4.0 7.0 3.0 8.0 20.0 33.0 46.0 31.0 -11.0 -38.0 -41.0 -42.0 -25.0 -15.0 -49.0 -58.0 -32.0 -19.0 0.0 34.0 36.0 0.0 -11.0 15.0 40.0 51.0 49.0 42.0 33.0 21.0 9.0 5.0 3.0 -3.0 -9.0 -11.0 -9.0 -9.0 -10.0 -16.0 -17.0 -3.0 -2.0 -9.0 -9.0 -8.0 9.0 6.0 -10.0 -1.0 -3.0 -8.0 -6.0 -8.0 -6.0 -10.0 -14.0 -6.0 4.0 11.0 22.0 13.0 -19.0 -22.0 -2.0 0.0 0.0 -4.0 -22.0 -19.0 4.0 16.0 17.0 20.0 18.0 14.0 14.0 6.0 0.0 -2.0 -6.0 -5.0 4.0 14.0 18.0 41.0 64.0 36.0 -15.0 -67.0 -105.0 -97.0 -85.0 -67.0 -9.0 45.0 64.0 43.0 26.0 19.0 -9.0 -13.0 13.0 47.0 75.0 77.0 54.0 27.0 5.0 -73.0 -140.0 -93.0 -44.0 -24.0 11.0 22.0 28.0 46.0 41.0 27.0 24.0 20.0 14.0 10.0 5.0 -3.0 -4.0 1.0 1.0 -8.0 -9.0 -4.0 -6.0 -5.0 0.0 0.0 -8.0 -12.0 -7.0 -9.0 -14.0 -14.0 -7.0 -12.0 -14.0 -1.0 2.0 0.0 1.0 3.0 2.0 -1.0 -3.0 -10.0 -6.0 9.0 13.0 17.0 26.0 30.0 35.0 44.0 30.0 -3.0 -50.0 -119.0 -141.0 -105.0 -67.0 -22.0 23.0 67.0 96.0 106.0 122.0 102.0 46.0 1.0 -36.0 -47.0 -48.0 -55.0 -45.0 -32.0 8.0 41.0 16.0 -8.0 -15.0 -3.0 16.0 31.0 38.0 30.0 20.0 10.0 6.0 -6.0 -19.0 -16.0 -28.0 -25.0 -11.0 -7.0 -3.0 -6.0 -2.0 4.0 20.0 26.0 -10.0 -24.0 -10.0 -20.0 -46.0 -74.0 -62.0 -18.0 4.0 25.0 43.0 41.0 43.0 32.0 17.0 20.0 15.0 9.0 9.0 -7.0 -11.0 10.0 12.0 -1.0 -2.0 -23.0 -40.0 -22.0 -5.0 4.0 7.0 1.0 -4.0 -4.0 9.0 28.0 31.0 0.0 -32.0 -11.0 8.0 -7.0 -13.0 -12.0 -1.0 28.0 29.0 0.0 -5.0 -3.0 -5.0 0.0 -18.0 -54.0 -73.0 -46.0 1.0 25.0 54.0 83.0 62.0 24.0 18.0 34.0 42.0 35.0 14.0 -41.0 -92.0 -82.0 -40.0 -11.0 -7.0 -13.0 1.0 11.0 10.0 21.0 28.0 22.0 24.0 24.0 -3.0 -37.0 -39.0 -8.0 19.0 18.0 22.0 31.0 24.0 4.0 -49.0 -86.0 -48.0 -10.0 7.0 28.0 25.0 22.0 22.0 13.0 10.0 9.0 3.0 -6.0 -6.0 -7.0 -19.0 -19.0 -6.0 21.0 60.0 64.0 46.0 40.0 30.0 14.0 -21.0 -86.0 -163.0 -220.0 -196.0 -117.0 -34.0 58.0 104.0 109.0 123.0 108.0 65.0 32.0 30.0 28.0 -4.0 -3.0 30.0 33.0 36.0 45.0 36.0 6.0 -17.0 -13.0 -23.0 -24.0 -16.0 -39.0 -74.0 -92.0 -76.0 -74.0 -81.0 -37.0 22.0 58.0 66.0 63.0 50.0 22.0 24.0 40.0 26.0 6.0 -25.0 -42.0 -26.0 -24.0 -20.0 1.0 23.0 36.0 35.0 29.0 17.0 6.0 0.0 -9.0 -16.0 -22.0 -19.0 -3.0 14.0 13.0 -1.0 2.0 16.0 3.0 -13.0 -18.0 -45.0 -83.0 -71.0 -18.0 19.0 51.0 47.0 13.0 8.0 13.0 31.0 20.0 -34.0 -26.0 4.0 5.0 29.0 46.0 44.0 69.0 69.0 0.0 -62.0 -83.0 -106.0 -83.0 -23.0 -28.0 -24.0 28.0 44.0 25.0 23.0 18.0 2.0 22.0 49.0 67.0 76.0 59.0 47.0 35.0 7.0 -19.0 -46.0 -55.0 -57.0 -108.0 -152.0 -108.0 -48.0 -14.0 27.0 52.0 67.0 72.0 52.0 41.0 32.0 9.0 -3.0 -5.0 -9.0 -7.0 -11.0 -16.0 -21.0 -47.0 -49.0 -12.0 33.0 65.0 46.0 7.0 -4.0 -17.0 -17.0 18.0 8.0 -23.0 -24.0 -72.0 -98.0 -49.0 -2.0 49.0 77.0 62.0 48.0 29.0 8.0 -8.0 -13.0 22.0 47.0 15.0 -14.0 -29.0 -37.0 -32.0 -33.0 -23.0 -10.0 15.0 56.0 70.0 64.0 29.0 5.0 3.0 -21.0 -32.0 -27.0 -13.0 -33.0 -62.0 -4.0 12.0 -33.0 -2.0 12.0 -40.0 -55.0 7.0 63.0 40.0 10.0 -23.0 -77.0 -77.0 -36.0 -1.0 52.0 126.0 132.0 97.0 90.0 64.0 0.0 -83.0 -100.0 -36.0 -2.0 19.0 43.0 18.0 -6.0 -21.0 -28.0 -22.0 -19.0 -19.0 -36.0 -28.0 1.0 -11.0 -24.0 -3.0 1.0 -14.0 -9.0 -2.0 -8.0 -14.0 -46.0 -77.0 -37.0 20.0 39.0 62.0 80.0 70.0 46.0 27.0 29.0 21.0 3.0 -18.0 -59.0 -89.0 -91.0 -60.0 -14.0 13.0 1.0 -31.0 -40.0 13.0 108.0 143.0 105.0 61.0 -25.0 -142.0 -149.0 -55.0 -12.0 -3.0 20.0 3.0 -7.0 23.0 62.0 122.0 133.0 68.0 -9.0 -27.0 25.0 30.0 2.0 -11.0 -59.0 -99.0 -133.0 -115.0 -21.0 45.0 90.0 93.0 45.0 11.0 -10.0 0.0 12.0 1.0 0.0 -23.0 -45.0 -26.0 -5.0 3.0 6.0 3.0 -16.0 -37.0 -13.0 15.0 15.0 15.0 4.0 -2.0 6.0 0.0 -7.0 -12.0 -12.0 3.0 16.0 27.0 43.0 59.0 62.0 43.0 7.0 -12.0 -29.0 -38.0 -34.0 -81.0 -117.0 -116.0 -126.0 -80.0 -6.0 23.0 36.0 39.0 9.0 6.0 43.0 79.0 124.0 128.0 93.0 56.0 15.0 -8.0 -12.0 14.0 20.0 -17.0 -45.0 -58.0 -21.0 1.0 -58.0 -106.0 -94.0 -55.0 -66.0 -79.0 9.0 50.0 50.0 95.0 104.0 134.0 165.0 150.0 137.0 71.0 -44.0 -150.0 -216.0 -238.0 -212.0 -99.0 -14.0 -22.0 -4.0 51.0 39.0 -10.0 -8.0 5.0 20.0 50.0 75.0 99.0 111.0 106.0 81.0 58.0 54.0 40.0 19.0 10.0 13.0 -9.0 -63.0 -87.0 -90.0 -84.0 -66.0 -48.0 -35.0 -12.0 3.0 -1.0 13.0 23.0 21.0 16.0 -31.0 -101.0 -120.0 -43.0 10.0 -3.0 53.0 122.0 62.0 -38.0 -44.0 -53.0 -156.0 -167.0 -36.0 18.0 0.0 15.0 42.0 83.0 101.0 115.0 166.0 167.0 117.0 75.0 38.0 3.0 -7.0 45.0 112.0 116.0 32.0 -104.0 -206.0 -304.0 -320.0 -168.0 -58.0 -30.0 25.0 64.0 95.0 120.0 99.0 85.0 87.0 57.0 35.0 26.0 -6.0 -34.0 -56.0 -49.0 0.0 24.0 0.0 -33.0 -25.0 0.0 13.0 25.0 4.0 -24.0 -35.0 -36.0 -12.0 3.0 12.0 30.0 26.0 18.0 -2.0 -29.0 -26.0 -34.0 -25.0 -15.0 -64.0 -54.0 1.0 2.0 35.0 71.0 46.0 27.0 7.0 -8.0 -6.0 -4.0 21.0 38.0 13.0 -23.0 -43.0 -37.0 -23.0 -31.0 -34.0 17.0 52.0 28.0 17.0 5.0 -21.0 -14.0 28.0 56.0 31.0 6.0 -78.0 -218.0 -152.0 6.0 23.0 17.0 4.0 -2.0 61.0 111.0 127.0 152.0 173.0 120.0 39.0 30.0 -37.0 -142.0 -145.0 -133.0 -102.0 -86.0 -132.0 -81.0 12.0 42.0 110.0 181.0 200.0 181.0 141.0 99.0 -29.0 -160.0 -156.0 -95.0 -69.0 -65.0 1.0 52.0 5.0 -27.0 -16.0 -45.0 -112.0 -104.0 -15.0 53.0 72.0 71.0 50.0 -10.0 -45.0 -34.0 -12.0 19.0 12.0 -6.0 -1.0 -17.0 -33.0 -43.0 -27.0 0.0 0.0 22.0 31.0 33.0 58.0 64.0 83.0 102.0 67.0 23.0 -19.0 -84.0 -136.0 -122.0 -27.0 43.0 70.0 95.0 57.0 4.0 -50.0 -122.0 -55.0 76.0 60.0 -24.0 -83.0 -131.0 -158.0 -162.0 -117.0 -55.0 -57.0 -56.0 37.0 130.0 145.0 142.0 142.0 126.0 88.0 71.0 100.0 95.0 66.0 100.0 131.0 102.0 69.0 1.0 -159.0 -289.0 -232.0 -110.0 -77.0 -29.0 11.0 0.0 15.0 12.0 11.0 70.0 125.0 108.0 48.0 30.0 33.0 -35.0 -164.0 -193.0 -93.0 -54.0 -59.0 -46.0 -47.0 1.0 15.0 -7.0 18.0 24.0 54.0 66.0 43.0 80.0 85.0 65.0 76.0 66.0 52.0 50.0 51.0 55.0 42.0 2.0 -52.0 -122.0 -198.0 -231.0 -183.0 -73.0 -9.0 -6.0 4.0 -6.0 -15.0 22.0 34.0 8.0 -22.0 -48.0 -34.0 -1.0 36.0 95.0 130.0 135.0 146.0 131.0 56.0 13.0 24.0 -44.0 -169.0 -182.0 -56.0 16.0 -8.0 -11.0 -26.0 -14.0 12.0 4.0 29.0 -15.0 -146.0 -122.0 45.0 105.0 122.0 218.0 248.0 209.0 171.0 75.0 -53.0 -121.0 -132.0 -164.0 -227.0 -198.0 -75.0 -61.0 -80.0 13.0 44.0 22.0 45.0 32.0 22.0 56.0 104.0 161.0 157.0 60.0 -40.0 -72.0 -88.0 -140.0 -131.0 -43.0 2.0 -17.0 -41.0 -37.0 -17.0 18.0 44.0 49.0 60.0 19.0 -16.0 9.0 38.0 56.0 42.0 9.0 -17.0 -33.0 -53.0 -76.0 -36.0 12.0 6.0 17.0 59.0 77.0 70.0 68.0 68.0 32.0 -42.0 -119.0 -142.0 -108.0 -78.0 -57.0 -48.0 -69.0 -11.0 92.0 86.0 51.0 31.0 -26.0 -33.0 16.0 18.0 -23.0 -56.0 -89.0 -85.0 -32.0 18.0 67.0 81.0 83.0 111.0 120.0 130.0 136.0 118.0 52.0 -22.0 -21.0 -68.0 -130.0 -80.0 -46.0 -60.0 -46.0 2.0 30.0 -9.0 -41.0 -5.0 12.0 -21.0 14.0 110.0 93.0 11.0 -4.0 -17.0 -73.0 -138.0 -160.0 -153.0 -126.0 -50.0 23.0 115.0 188.0 207.0 205.0 110.0 -6.0 -79.0 -144.0 -130.0 -60.0 -17.0 37.0 60.0 1.0 -31.0 -29.0 -7.0 62.0 126.0 143.0 125.0 77.0 -9.0 -128.0 -190.0 -133.0 -53.0 -76.0 -150.0 -148.0 -100.0 -74.0 -31.0 45.0 143.0 248.0 269.0 203.0 93.0 -114.0 -322.0 -300.0 -92.0 29.0 41.0 55.0 60.0 68.0 71.0 111.0 152.0 100.0 64.0 58.0 4.0 -61.0 -96.0 -71.0 3.0 6.0 -78.0 -132.0 -168.0 -191.0 -114.0 27.0 95.0 111.0 155.0 175.0 183.0 187.0 151.0 69.0 -37.0 -92.0 -87.0 -101.0 -115.0 -80.0 -62.0 -75.0 -31.0 27.0 40.0 49.0 35.0 27.0 34.0 -16.0 -46.0 -10.0 -13.0 -47.0 -66.0 -92.0 -113.0 -106.0 -77.0 -31.0 9.0 36.0 44.0 39.0 49.0 30.0 6.0 53.0 72.0 22.0 25.0 52.0 46.0 55.0 58.0 39.0 41.0 41.0 29.0 58.0 75.0 17.0 -26.0 -43.0 -102.0 -132.0 -59.0 15.0 -8.0 -61.0 -113.0 -171.0 -171.0 -121.0 -104.0 -100.0 -8.0 79.0 102.0 155.0 176.0 169.0 177.0 159.0 125.0 93.0 72.0 34.0 -9.0 -40.0 -103.0 -148.0 -126.0 -95.0 -73.0 -4.0 86.0 103.0 81.0 69.0 -10.0 -143.0 -187.0 -133.0 -56.0 -2.0 -10.0 -7.0 5.0 -39.0 -45.0 -6.0 -7.0 -16.0 -5.0 27.0 67.0 94.0 143.0 147.0 88.0 41.0 -17.0 -71.0 -74.0 -65.0 -51.0 -23.0 -11.0 19.0 68.0 45.0 -11.0 -52.0 -42.0 16.0 37.0 28.0 22.0 -5.0 -25.0 -13.0 17.0 22.0 -9.0 -6.0 -14.0 -105.0 -145.0 -69.0 -37.0 -51.0 10.0 89.0 115.0 106.0 104.0 112.0 88.0 26.0 -28.0 -50.0 -80.0 -94.0 -56.0 -22.0 0.0 15.0 8.0 -9.0 -19.0 5.0 28.0 19.0 21.0 20.0 18.0 29.0 38.0 41.0 18.0 -16.0 -14.0 -5.0 -34.0 -58.0 -64.0 -54.0 -42.0 -52.0 -34.0 5.0 -1.0 7.0 47.0 42.0 26.0 17.0 2.0 1.0 -6.0 -35.0 -47.0 -36.0 -31.0 -10.0 33.0 62.0 64.0 45.0 12.0 13.0 43.0 27.0 -24.0 -37.0 -5.0 11.0 24.0 61.0 68.0 3.0 -116.0 -159.0 -47.0 61.0 70.0 40.0 12.0 5.0 -12.0 -37.0 -30.0 -50.0 -78.0 -32.0 25.0 38.0 54.0 61.0 49.0 36.0 0.0 14.0 31.0 -24.0 -39.0 -17.0 -49.0 -115.0 -109.0 -40.0 6.0 45.0 52.0 30.0 18.0 15.0 25.0 4.0 3.0 31.0 19.0 51.0 99.0 72.0 35.0 12.0 -32.0 -62.0 -46.0 -21.0 -23.0 -33.0 -54.0 -89.0 -92.0 -84.0 -47.0 27.0 54.0 55.0 70.0 88.0 99.0 84.0 63.0 38.0 21.0 14.0 -16.0 -38.0 -39.0 -47.0 -53.0 -64.0 -77.0 -63.0 -39.0 -19.0 -20.0 -27.0 -27.0 -60.0 -45.0 41.0 65.0 47.0 64.0 41.0 16.0 45.0 46.0 47.0 68.0 -3.0 -93.0 -75.0 -34.0 -19.0 5.0 23.0 11.0 -8.0 0.0 4.0 13.0 35.0 18.0 10.0 25.0 6.0 -14.0 5.0 29.0 28.0 30.0 41.0 34.0 15.0 -14.0 -49.0 -57.0 -58.0 -71.0 -66.0 -49.0 -18.0 25.0 60.0 71.0 43.0 0.0 -27.0 -27.0 -25.0 -27.0 0.0 11.0 -20.0 -33.0 -29.0 -9.0 30.0 40.0 46.0 57.0 46.0 34.0 11.0 5.0 3.0 -49.0 -90.0 -78.0 -86.0 -106.0 -58.0 8.0 43.0 70.0 83.0 92.0 89.0 73.0 70.0 61.0 34.0 12.0 -15.0 -43.0 -53.0 -53.0 -53.0 -62.0 -65.0 -44.0 -19.0 -8.0 5.0 22.0 20.0 17.0 32.0 31.0 8.0 -16.0 -36.0 -65.0 -97.0 -83.0 -40.0 -20.0 15.0 59.0 79.0 94.0 84.0 48.0 27.0 17.0 21.0 30.0 20.0 5.0 -1.0 -2.0 -4.0 -12.0 -21.0 -33.0 -70.0 -91.0 -38.0 10.0 28.0 46.0 34.0 28.0 19.0 12.0 57.0 72.0 -2.0 -94.0 -117.0 -71.0 -34.0 -14.0 2.0 6.0 22.0 17.0 -16.0 -10.0 15.0 23.0 30.0 29.0 28.0 41.0 36.0 12.0 -5.0 -13.0 -14.0 -20.0 -31.0 -36.0 -25.0 -11.0 -11.0 -5.0 9.0 16.0 20.0 16.0 3.0 -7.0 -17.0 -14.0 -4.0 7.0 4.0 -5.0 2.0 -12.0 -19.0 7.0 8.0 2.0 21.0 33.0 33.0 27.0 26.0 22.0 4.0 -13.0 -30.0 -36.0 -27.0 -28.0 -20.0 4.0 6.0 -2.0 2.0 20.0 11.0 -12.0 -3.0 -1.0 -14.0 -11.0 1.0 15.0 35.0 45.0 23.0 -10.0 -18.0 -13.0 8.0 41.0 8.0 -69.0 -115.0 -112.0 -56.0 4.0 39.0 59.0 57.0 35.0 20.0 28.0 28.0 15.0 10.0 -3.0 -3.0 1.0 -14.0 -7.0 16.0 13.0 -2.0 0.0 9.0 15.0 27.0 9.0 -18.0 -13.0 -10.0 -18.0 -15.0 0.0 4.0 -6.0 0.0 9.0 -5.0 -14.0 -21.0 -38.0 -40.0 -25.0 -7.0 -7.0 -17.0 0.0 15.0 17.0 22.0 18.0 16.0 25.0 39.0 28.0 8.0 10.0 5.0 -6.0 -12.0 -11.0 -1.0 -4.0 -6.0 1.0 -1.0 -4.0 -4.0 -5.0 -2.0 -2.0 -3.0 -6.0 -9.0 0.0 2.0 0.0 2.0 -1.0 -2.0 -4.0 -5.0 7.0 5.0 1.0 12.0 15.0 8.0 0.0 -4.0 -24.0 -34.0 -20.0 -17.0 -5.0 6.0 4.0 5.0 24.0 53.0 53.0 30.0 7.0 -9.0 -23.0 -18.0 6.0 -9.0 -47.0 -56.0 -57.0 -43.0 -19.0 -10.0 6.0 33.0 51.0 55.0 47.0 41.0 43.0 45.0 26.0 -14.0 -43.0 -57.0 -54.0 -20.0 -1.0 -2.0 15.0 22.0 18.0 14.0 6.0 2.0 0.0 1.0 -5.0 -10.0 -3.0 -7.0 -6.0 -7.0 -10.0 -6.0 -5.0 -4.0 -5.0 -4.0 -1.0 -3.0 -3.0 -4.0 -3.0 0.0 -1.0 -2.0 -5.0 -11.0 -9.0 -6.0 -3.0 3.0 9.0 9.0 9.0 16.0 19.0 14.0 13.0 15.0 5.0 -7.0 0.0 12.0 8.0 5.0 5.0 -11.0 -50.0 -65.0 -12.0 31.0 8.0 -16.0 -30.0 -35.0 -3.0 26.0 31.0 35.0 6.0 -26.0 -3.0 3.0 0.0 19.0 7.0 -2.0 7.0 20.0 29.0 21.0 21.0 20.0 10.0 9.0 7.0 2.0 0.0 -1.0 -2.0 -7.0 -14.0 -16.0 -16.0 -16.0 -14.0 -12.0 -10.0 -9.0 -8.0 -5.0 -6.0 -5.0 -5.0 -10.0 -11.0 -1.0 -4.0 -5.0 5.0 0.0 0.0 15.0 9.0 0.0 -10.0 -23.0 -20.0 0.0 10.0 1.0 -7.0 9.0 28.0 15.0 3.0 5.0 -1.0 4.0 28.0 21.0 7.0 22.0 10.0 -5.0 2.0 -12.0 -6.0 9.0 1.0 2.0 -14.0 -39.0 -30.0 -15.0 -10.0 -5.0 -19.0 -35.0 -29.0 -10.0 24.0 33.0 21.0 21.0 10.0 4.0 14.0 23.0 32.0 17.0 10.0 14.0 -2.0 -9.0 -7.0 -11.0 -18.0 -11.0 3.0 -4.0 -5.0 1.0 0.0 1.0 0.0 -1.0 -6.0 -15.0 -12.0 -8.0 -7.0 -1.0 7.0 9.0 12.0 13.0 1.0 -4.0 -5.0 -10.0 2.0 4.0 -1.0 7.0 4.0 0.0 1.0 2.0 7.0 10.0 4.0 -4.0 -6.0 -9.0 -15.0 -11.0 -13.0 -8.0 7.0 5.0 14.0 29.0 19.0 19.0 13.0 -11.0 -16.0 -30.0 -45.0 -46.0 -38.0 -14.0 10.0 24.0 37.0 49.0 35.0 -9.0 -34.0 -16.0 1.0 9.0 7.0 1.0 12.0 4.0 -19.0 -12.0 -8.0 -17.0 5.0 23.0 25.0 26.0 18.0 20.0 20.0 3.0 3.0 5.0 -1.0 0.0 -6.0 -16.0 -13.0 -12.0 -10.0 -9.0 -16.0 -22.0 -20.0 -15.0 -15.0 -4.0 12.0 14.0 5.0 -10.0 -16.0 -5.0 1.0 -1.0 4.0 10.0 4.0 11.0 17.0 9.0 -3.0 -5.0 -4.0 -10.0 -4.0 0.0 -9.0 -3.0 5.0 0.0 9.0 4.0 -9.0 -5.0 0.0 16.0 25.0 12.0 5.0 10.0 22.0 34.0 23.0 -10.0 -30.0 -40.0 -44.0 -19.0 3.0 11.0 11.0 -7.0 -29.0 -29.0 -17.0 -23.0 -8.0 32.0 43.0 36.0 30.0 22.0 21.0 22.0 16.0 9.0 8.0 2.0 -8.0 -9.0 -8.0 -11.0 -9.0 -9.0 -9.0 -6.0 -2.0 0.0 -6.0 -8.0 -4.0 -8.0 -8.0 -9.0 -11.0 -14.0 -22.0 -15.0 -3.0 8.0 25.0 26.0 25.0 41.0 22.0 -32.0 -60.0 -82.0 -85.0 -39.0 -2.0 13.0 16.0 18.0 35.0 39.0 32.0 28.0 19.0 9.0 12.0 15.0 4.0 8.0 17.0 6.0 -2.0 -1.0 0.0 0.0 4.0 5.0 -20.0 -31.0 -12.0 -4.0 0.0 0.0 -9.0 -5.0 -8.0 -6.0 6.0 17.0 22.0 19.0 17.0 10.0 2.0 6.0 2.0 0.0 -3.0 -10.0 -13.0 -23.0 -14.0 -2.0 -14.0 -7.0 0.0 -7.0 -4.0 -10.0 2.0 26.0 16.0 21.0 33.0 24.0 33.0 13.0 -24.0 -12.0 6.0 -26.0 -100.0 -133.0 -96.0 -34.0 23.0 51.0 67.0 76.0 62.0 54.0 37.0 -8.0 -39.0 -40.0 -15.0 7.0 1.0 0.0 5.0 2.0 10.0 18.0 16.0 16.0 8.0 7.0 8.0 0.0 -1.0 5.0 3.0 -7.0 -19.0 -22.0 -7.0 -6.0 -11.0 -10.0 -17.0 -13.0 -9.0 -8.0 0.0 -8.0 -6.0 3.0 6.0 10.0 7.0 13.0 21.0 16.0 13.0 5.0 -6.0 -13.0 -19.0 -17.0 -10.0 -7.0 1.0 16.0 37.0 56.0 39.0 1.0 -6.0 -21.0 -73.0 -89.0 -67.0 -48.0 -21.0 0.0 27.0 68.0 69.0 38.0 23.0 16.0 7.0 5.0 -5.0 -25.0 -8.0 16.0 23.0 26.0 13.0 5.0 -2.0 -11.0 -7.0 0.0 1.0 -10.0 -11.0 0.0 -1.0 -1.0 1.0 2.0 3.0 -5.0 -7.0 0.0 -3.0 -4.0 -6.0 -8.0 -2.0 -3.0 -6.0 -5.0 -11.0 -20.0 -20.0 -15.0 0.0 19.0 29.0 46.0 62.0 44.0 -9.0 -71.0 -107.0 -97.0 -50.0 0.0 32.0 49.0 44.0 25.0 20.0 17.0 20.0 29.0 30.0 27.0 30.0 46.0 24.0 -38.0 -87.0 -105.0 -91.0 -64.0 -21.0 27.0 50.0 63.0 50.0 6.0 -9.0 0.0 1.0 13.0 18.0 15.0 27.0 34.0 28.0 20.0 10.0 3.0 2.0 -10.0 -22.0 -23.0 -29.0 -27.0 -21.0 -21.0 -15.0 -17.0 -16.0 -15.0 -15.0 2.0 18.0 29.0 29.0 19.0 26.0 25.0 8.0 -5.0 -25.0 -28.0 -27.0 -35.0 -28.0 -19.0 -3.0 27.0 30.0 17.0 35.0 76.0 108.0 76.0 -42.0 -154.0 -156.0 -89.0 -43.0 -15.0 4.0 2.0 18.0 55.0 63.0 53.0 44.0 29.0 16.0 16.0 28.0 42.0 36.0 22.0 13.0 -15.0 -57.0 -80.0 -80.0 -71.0 -55.0 -5.0 52.0 60.0 23.0 3.0 9.0 0.0 -17.0 -24.0 -13.0 7.0 20.0 25.0 24.0 16.0 17.0 17.0 18.0 15.0 1.0 0.0 0.0 -8.0 -15.0 -23.0 -20.0 8.0 19.0 -17.0 -49.0 -39.0 -10.0 7.0 0.0 -27.0 -39.0 -10.0 5.0 4.0 15.0 10.0 0.0 9.0 20.0 16.0 17.0 24.0 12.0 -7.0 -5.0 22.0 47.0 44.0 30.0 35.0 52.0 21.0 -51.0 -103.0 -138.0 -143.0 -93.0 -19.0 31.0 46.0 51.0 54.0 55.0 50.0 30.0 8.0 0.0 7.0 10.0 -6.0 -10.0 4.0 7.0 5.0 -6.0 -9.0 16.0 28.0 13.0 1.0 0.0 4.0 9.0 -5.0 -46.0 -69.0 -55.0 -24.0 -1.0 -5.0 -5.0 8.0 21.0 22.0 9.0 13.0 31.0 37.0 28.0 0.0 1.0 20.0 9.0 -3.0 -41.0 -79.0 -68.0 -55.0 -47.0 -18.0 18.0 37.0 33.0 29.0 14.0 12.0 50.0 52.0 24.0 32.0 42.0 34.0 48.0 53.0 -2.0 -76.0 -103.0 -108.0 -101.0 -49.0 5.0 16.0 9.0 -9.0 -37.0 -30.0 -4.0 22.0 77.0 91.0 34.0 4.0 21.0 40.0 49.0 30.0 -3.0 -25.0 -28.0 -10.0 4.0 -5.0 -3.0 11.0 -1.0 -24.0 -24.0 -5.0 -10.0 -28.0 -20.0 -30.0 -42.0 -9.0 18.0 31.0 31.0 4.0 -9.0 -16.0 -30.0 -19.0 15.0 34.0 24.0 26.0 38.0 32.0 4.0 -22.0 -29.0 -34.0 -37.0 -37.0 -32.0 -10.0 18.0 31.0 30.0 26.0 21.0 15.0 4.0 -4.0 -2.0 12.0 21.0 22.0 27.0 21.0 27.0 49.0 29.0 -29.0 -87.0 -112.0 -94.0 -51.0 -4.0 15.0 27.0 51.0 55.0 54.0 36.0 -24.0 -50.0 -37.0 -57.0 -70.0 -61.0 -65.0 -34.0 12.0 34.0 69.0 100.0 97.0 86.0 70.0 40.0 15.0 -1.0 -17.0 -26.0 -29.0 -44.0 -63.0 -60.0 -27.0 9.0 31.0 35.0 25.0 18.0 10.0 -13.0 -28.0 1.0 24.0 2.0 -30.0 -71.0 -94.0 -70.0 -37.0 0.0 33.0 34.0 26.0 30.0 37.0 31.0 32.0 49.0 58.0 50.0 21.0 2.0 -1.0 -17.0 -17.0 -17.0 -42.0 -75.0 -115.0 -111.0 -56.0 -5.0 49.0 84.0 76.0 66.0 58.0 39.0 12.0 -3.0 -6.0 -25.0 -23.0 -2.0 2.0 22.0 34.0 38.0 48.0 46.0 31.0 5.0 -18.0 -50.0 -96.0 -115.0 -122.0 -127.0 -109.0 -63.0 -5.0 16.0 34.0 87.0 123.0 136.0 136.0 117.0 84.0 59.0 24.0 -34.0 -92.0 -154.0 -150.0 -85.0 -55.0 -53.0 -45.0 4.0 45.0 64.0 91.0 98.0 91.0 68.0 34.0 -8.0 -33.0 7.0 48.0 28.0 -10.0 -10.0 -11.0 -64.0 -101.0 -58.0 -34.0 -59.0 -21.0 -7.0 -48.0 -12.0 2.0 -6.0 53.0 76.0 40.0 10.0 -2.0 -22.0 -62.0 -42.0 22.0 35.0 53.0 66.0 30.0 9.0 18.0 23.0 8.0 -2.0 2.0 -9.0 -31.0 -33.0 -38.0 -49.0 -27.0 11.0 19.0 18.0 43.0 40.0 3.0 1.0 10.0 -14.0 -40.0 -35.0 -10.0 -4.0 -21.0 -41.0 -48.0 -74.0 -120.0 -85.0 -2.0 34.0 67.0 111.0 140.0 140.0 106.0 63.0 22.0 3.0 10.0 9.0 6.0 24.0 26.0 -15.0 -24.0 -16.0 -56.0 -82.0 -21.0 17.0 -104.0 -190.0 -78.0 -17.0 -64.0 -19.0 12.0 -15.0 19.0 36.0 25.0 24.0 32.0 72.0 81.0 75.0 73.0 39.0 21.0 3.0 -38.0 -28.0 4.0 -5.0 -8.0 7.0 2.0 -24.0 -37.0 -20.0 -15.0 -2.0 0.0 -36.0 -24.0 -13.0 -55.0 -21.0 54.0 57.0 35.0 -6.0 -51.0 -75.0 -104.0 -58.0 -5.0 -30.0 -14.0 61.0 112.0 77.0 -1.0 -34.0 6.0 75.0 78.0 48.0 42.0 27.0 26.0 79.0 133.0 97.0 -15.0 -113.0 -168.0 -198.0 -170.0 -60.0 59.0 86.0 84.0 96.0 67.0 85.0 122.0 63.0 -53.0 -174.0 -263.0 -221.0 -86.0 -13.0 58.0 82.0 0.0 -4.0 7.0 -10.0 19.0 27.0 34.0 59.0 65.0 61.0 73.0 82.0 46.0 7.0 -16.0 -24.0 6.0 23.0 8.0 0.0 -15.0 -31.0 -16.0 -18.0 -50.0 -40.0 3.0 6.0 -28.0 -34.0 -38.0 -81.0 -82.0 -15.0 18.0 2.0 -18.0 -61.0 -89.0 -60.0 -14.0 51.0 73.0 46.0 50.0 40.0 37.0 65.0 66.0 71.0 102.0 126.0 101.0 70.0 76.0 1.0 -124.0 -175.0 -199.0 -167.0 -64.0 -33.0 -68.0 -94.0 -38.0 97.0 155.0 127.0 64.0 -37.0 -91.0 -56.0 29.0 93.0 135.0 166.0 105.0 27.0 -6.0 -84.0 -188.0 -204.0 -122.0 -87.0 -99.0 -49.0 22.0 88.0 125.0 107.0 106.0 115.0 84.0 53.0 43.0 36.0 26.0 43.0 66.0 27.0 -30.0 -63.0 -58.0 -23.0 -41.0 -68.0 -68.0 -106.0 -165.0 -184.0 -95.0 2.0 -5.0 -12.0 17.0 34.0 24.0 10.0 21.0 30.0 25.0 38.0 59.0 50.0 46.0 56.0 30.0 16.0 65.0 103.0 82.0 64.0 39.0 -30.0 -65.0 -31.0 23.0 27.0 -26.0 -74.0 -122.0 -177.0 -195.0 -165.0 -81.0 28.0 72.0 64.0 85.0 43.0 -133.0 -178.0 56.0 163.0 83.0 129.0 179.0 151.0 110.0 23.0 -57.0 -112.0 -165.0 -167.0 -107.0 -59.0 -47.0 -18.0 47.0 109.0 169.0 210.0 185.0 168.0 151.0 19.0 -62.0 -7.0 -73.0 -203.0 -135.0 7.0 21.0 -55.0 -105.0 -67.0 22.0 50.0 12.0 -28.0 -80.0 -123.0 -122.0 -82.0 -31.0 0.0 11.0 21.0 17.0 -7.0 -9.0 35.0 71.0 48.0 41.0 62.0 45.0 40.0 19.0 -44.0 -43.0 0.0 35.0 66.0 62.0 47.0 27.0 44.0 96.0 111.0 104.0 57.0 -38.0 -136.0 -200.0 -220.0 -167.0 -73.0 -51.0 -64.0 -81.0 -91.0 -27.0 61.0 94.0 76.0 86.0 51.0 -53.0 -32.0 76.0 121.0 128.0 108.0 86.0 118.0 118.0 70.0 33.0 -44.0 -157.0 -205.0 -152.0 -101.0 -61.0 47.0 104.0 76.0 64.0 59.0 32.0 -40.0 -115.0 -140.0 -129.0 -62.0 20.0 55.0 90.0 106.0 113.0 132.0 21.0 -79.0 -85.0 -159.0 -169.0 -86.0 -35.0 -26.0 -41.0 -4.0 28.0 0.0 -15.0 -11.0 10.0 57.0 96.0 87.0 64.0 83.0 108.0 101.0 83.0 73.0 76.0 64.0 36.0 40.0 50.0 -15.0 -107.0 -198.0 -284.0 -271.0 -185.0 -53.0 35.0 8.0 16.0 66.0 72.0 47.0 38.0 55.0 54.0 54.0 71.0 91.0 93.0 41.0 -27.0 -65.0 -93.0 -103.0 -52.0 0.0 -15.0 -28.0 -3.0 -1.0 -14.0 2.0 48.0 80.0 51.0 18.0 47.0 47.0 15.0 23.0 47.0 81.0 -14.0 -222.0 -221.0 -97.0 -82.0 -55.0 25.0 13.0 -28.0 -17.0 -6.0 27.0 66.0 99.0 150.0 149.0 116.0 95.0 54.0 -10.0 -78.0 -68.0 23.0 44.0 3.0 -15.0 -42.0 -63.0 -79.0 -78.0 -29.0 -18.0 -48.0 -28.0 40.0 80.0 92.0 93.0 34.0 -57.0 -152.0 -209.0 -164.0 -108.0 -61.0 36.0 123.0 191.0 217.0 178.0 149.0 98.0 -38.0 -154.0 -106.0 -8.0 -54.0 -141.0 -126.0 -97.0 -111.0 -95.0 -61.0 -8.0 107.0 230.0 259.0 202.0 130.0 11.0 -143.0 -169.0 -63.0 -15.0 -42.0 -80.0 -65.0 26.0 13.0 -41.0 -10.0 -10.0 -11.0 5.0 26.0 64.0 66.0 61.0 65.0 27.0 -7.0 30.0 45.0 -4.0 -25.0 -25.0 -37.0 -34.0 -1.0 17.0 16.0 65.0 83.0 37.0 9.0 -18.0 -74.0 -117.0 -89.0 -59.0 -24.0 61.0 50.0 -37.0 -71.0 -46.0 -8.0 15.0 55.0 90.0 54.0 -19.0 -47.0 -40.0 -37.0 -4.0 60.0 87.0 32.0 -73.0 -153.0 -156.0 -101.0 -5.0 92.0 96.0 11.0 -23.0 38.0 85.0 101.0 109.0 90.0 79.0 54.0 37.0 36.0 -25.0 -102.0 -185.0 -251.0 -175.0 -58.0 -16.0 36.0 64.0 51.0 63.0 70.0 75.0 56.0 3.0 -22.0 -56.0 -83.0 -39.0 13.0 60.0 142.0 186.0 147.0 86.0 37.0 -2.0 -26.0 -54.0 -95.0 -113.0 -107.0 -80.0 -40.0 0.0 27.0 9.0 2.0 51.0 91.0 122.0 104.0 10.0 -146.0 -319.0 -324.0 -233.0 -184.0 -79.0 -2.0 32.0 128.0 190.0 205.0 205.0 188.0 191.0 140.0 27.0 -20.0 12.0 10.0 -84.0 -139.0 -94.0 -63.0 -52.0 -14.0 15.0 14.0 45.0 115.0 141.0 106.0 36.0 -41.0 -125.0 -232.0 -258.0 -144.0 -47.0 -35.0 -29.0 -14.0 -17.0 -16.0 43.0 125.0 168.0 182.0 169.0 135.0 119.0 105.0 49.0 -14.0 -59.0 -107.0 -135.0 -122.0 -60.0 11.0 8.0 -20.0 2.0 25.0 36.0 63.0 69.0 13.0 -99.0 -243.0 -263.0 -123.0 -76.0 -92.0 -59.0 -78.0 -44.0 32.0 68.0 166.0 231.0 169.0 103.0 91.0 56.0 0.0 7.0 11.0 -62.0 -107.0 -59.0 3.0 20.0 24.0 40.0 60.0 58.0 70.0 121.0 136.0 89.0 -13.0 -83.0 -71.0 -88.0 -94.0 -57.0 -51.0 -79.0 -130.0 -126.0 -57.0 -11.0 7.0 52.0 121.0 145.0 91.0 47.0 49.0 41.0 41.0 35.0 -7.0 -12.0 -21.0 -82.0 -126.0 -146.0 -121.0 -68.0 -21.0 57.0 120.0 156.0 174.0 131.0 58.0 -24.0 -89.0 -86.0 -77.0 -96.0 -129.0 -197.0 -222.0 -193.0 -145.0 -35.0 79.0 152.0 162.0 91.0 29.0 23.0 67.0 112.0 131.0 116.0 49.0 9.0 -8.0 -28.0 -17.0 -2.0 31.0 78.0 101.0 98.0 75.0 49.0 15.0 -17.0 -29.0 -46.0 -73.0 -62.0 -32.0 -32.0 -51.0 -57.0 -45.0 -49.0 -80.0 -100.0 -88.0 -84.0 -146.0 -176.0 -59.0 52.0 75.0 89.0 72.0 66.0 52.0 15.0 26.0 29.0 66.0 130.0 140.0 140.0 132.0 117.0 97.0 71.0 51.0 4.0 -48.0 -74.0 -95.0 -145.0 -187.0 -184.0 -194.0 -149.0 -25.0 0.0 -3.0 23.0 -10.0 1.0 74.0 98.0 69.0 21.0 21.0 36.0 22.0 15.0 14.0 20.0 4.0 -4.0 54.0 75.0 29.0 19.0 38.0 16.0 -34.0 -95.0 -147.0 -118.0 -56.0 -25.0 -4.0 -8.0 -1.0 24.0 40.0 47.0 65.0 96.0 65.0 3.0 -5.0 -6.0 -36.0 -42.0 -22.0 -34.0 -70.0 -61.0 -27.0 -45.0 -63.0 -50.0 -1.0 72.0 67.0 45.0 63.0 67.0 84.0 96.0 94.0 67.0 -11.0 -48.0 -25.0 -10.0 -32.0 -38.0 0.0 -22.0 -74.0 -63.0 -21.0 16.0 32.0 43.0 40.0 16.0 -4.0 -6.0 -6.0 -27.0 -41.0 -39.0 -35.0 -38.0 -42.0 -36.0 -23.0 3.0 24.0 37.0 57.0 39.0 11.0 11.0 16.0 24.0 30.0 60.0 80.0 49.0 13.0 -35.0 -81.0 -80.0 -43.0 1.0 -23.0 -80.0 -81.0 -47.0 0.0 38.0 60.0 27.0 -9.0 24.0 36.0 9.0 7.0 33.0 29.0 -53.0 -128.0 -92.0 5.0 1.0 -37.0 35.0 76.0 53.0 63.0 61.0 43.0 16.0 -26.0 -54.0 -56.0 -42.0 -24.0 -19.0 11.0 69.0 73.0 61.0 50.0 29.0 61.0 84.0 55.0 7.0 -41.0 -53.0 -38.0 -27.0 -30.0 -43.0 -61.0 -93.0 -116.0 -85.0 -41.0 -33.0 -13.0 20.0 29.0 33.0 53.0 59.0 48.0 35.0 -8.0 -38.0 -6.0 4.0 -17.0 -1.0 26.0 29.0 15.0 18.0 40.0 38.0 40.0 56.0 46.0 -9.0 -67.0 -44.0 -3.0 -27.0 -39.0 -6.0 8.0 14.0 21.0 19.0 27.0 23.0 -21.0 -95.0 -132.0 -88.0 -47.0 -33.0 1.0 31.0 54.0 66.0 61.0 70.0 81.0 74.0 48.0 17.0 -1.0 -33.0 -63.0 -65.0 -65.0 -67.0 -68.0 -49.0 5.0 30.0 33.0 55.0 66.0 71.0 41.0 -18.0 -49.0 -81.0 -95.0 -76.0 -53.0 -6.0 27.0 54.0 88.0 81.0 65.0 45.0 7.0 -20.0 -50.0 -68.0 -67.0 -35.0 42.0 79.0 40.0 5.0 -3.0 4.0 44.0 46.0 -17.0 -52.0 -54.0 -29.0 11.0 17.0 28.0 35.0 24.0 30.0 19.0 -6.0 -12.0 -22.0 -30.0 -5.0 5.0 -7.0 -21.0 -20.0 0.0 -13.0 -25.0 -10.0 -16.0 -3.0 6.0 -15.0 -24.0 -23.0 0.0 14.0 -1.0 0.0 12.0 10.0 9.0 15.0 4.0 -4.0 -3.0 -9.0 -5.0 -2.0 3.0 15.0 13.0 16.0 21.0 18.0 16.0 14.0 11.0 0.0 -16.0 -34.0 -41.0 -9.0 27.0 30.0 38.0 44.0 38.0 47.0 20.0 -74.0 -142.0 -127.0 -101.0 -67.0 2.0 44.0 62.0 77.0 62.0 50.0 57.0 57.0 53.0 44.0 19.0 -9.0 -20.0 -14.0 -20.0 -76.0 -95.0 -51.0 -37.0 -17.0 -3.0 -7.0 26.0 47.0 44.0 34.0 26.0 26.0 16.0 8.0 0.0 -5.0 -8.0 -19.0 -16.0 -15.0 -20.0 -18.0 -20.0 -10.0 -11.0 -21.0 -7.0 1.0 0.0 3.0 1.0 0.0 0.0 1.0 0.0 -2.0 -4.0 -8.0 -2.0 1.0 -1.0 8.0 10.0 2.0 4.0 5.0 6.0 6.0 7.0 6.0 1.0 3.0 8.0 18.0 22.0 14.0 11.0 6.0 1.0 6.0 10.0 6.0 -16.0 -41.0 -39.0 -19.0 -18.0 -59.0 -67.0 -10.0 30.0 34.0 27.0 34.0 27.0 3.0 5.0 -1.0 1.0 25.0 20.0 16.0 15.0 -7.0 -16.0 -2.0 5.0 9.0 16.0 11.0 7.0 2.0 -9.0 -1.0 3.0 -11.0 -11.0 -8.0 -11.0 -8.0 -8.0 -6.0 -5.0 -10.0 -6.0 -8.0 -10.0 0.0 1.0 0.0 3.0 2.0 1.0 0.0 -1.0 0.0 -2.0 -2.0 -2.0 -2.0 -1.0 -2.0 0.0 -1.0 -2.0 1.0 -1.0 0.0 2.0 2.0 4.0 1.0 0.0 0.0 -3.0 -5.0 -5.0 1.0 3.0 0.0 2.0 5.0 14.0 29.0 43.0 46.0 33.0 26.0 2.0 -47.0 -93.0 -127.0 -122.0 -96.0 -48.0 22.0 59.0 82.0 86.0 42.0 24.0 43.0 40.0 28.0 29.0 4.0 -19.0 -15.0 -25.0 -11.0 16.0 7.0 14.0 23.0 12.0 14.0 11.0 4.0 0.0 -5.0 -2.0 -11.0 -10.0 3.0 -7.0 -15.0 -7.0 -3.0 -9.0 -19.0 -21.0 -25.0 -22.0 -10.0 -6.0 -2.0 -1.0 -2.0 0.0 0.0 -2.0 -1.0 -1.0 -3.0 -1.0 0.0 0.0 2.0 -2.0 -4.0 3.0 5.0 5.0 7.0 1.0 2.0 4.0 1.0 3.0 4.0 1.0 0.0 1.0 3.0 4.0 1.0 2.0 9.0 17.0 23.0 32.0 31.0 11.0 4.0 8.0 -1.0 -25.0 -72.0 -106.0 -81.0 -61.0 -33.0 24.0 33.0 51.0 88.0 76.0 51.0 12.0 -31.0 -48.0 -41.0 -16.0 5.0 13.0 23.0 37.0 31.0 17.0 14.0 8.0 5.0 6.0 -1.0 -9.0 -10.0 -9.0 -8.0 -7.0 -9.0 -10.0 -5.0 -4.0 -4.0 -7.0 -11.0 -16.0 -15.0 -11.0 -8.0 -6.0 -2.0 5.0 7.0 4.0 6.0 5.0 3.0 0.0 0.0 1.0 0.0 0.0 1.0 0.0 1.0 1.0 4.0 7.0 0.0 -11.0 -3.0 6.0 -3.0 -4.0 5.0 -1.0 -8.0 -4.0 -4.0 0.0 11.0 11.0 9.0 14.0 25.0 38.0 54.0 56.0 15.0 -31.0 -60.0 -79.0 -64.0 -42.0 -38.0 -36.0 -31.0 -1.0 30.0 28.0 22.0 27.0 35.0 36.0 34.0 34.0 26.0 15.0 1.0 -8.0 -15.0 -14.0 -12.0 -19.0 -9.0 -5.0 -10.0 -5.0 -12.0 -18.0 -11.0 -3.0 1.0 1.0 0.0 3.0 4.0 4.0 2.0 -2.0 0.0 1.0 -2.0 0.0 0.0 1.0 1.0 0.0 1.0 0.0 0.0 0.0 0.0 1.0 3.0 3.0 3.0 3.0 1.0 0.0 0.0 2.0 0.0 -2.0 0.0 -1.0 0.0 -1.0 -1.0 0.0 0.0 -2.0 -2.0 0.0 0.0 0.0 2.0 4.0 -3.0 -5.0 4.0 1.0 -3.0 4.0 8.0 9.0 0.0 4.0 17.0 24.0 31.0 -1.0 -39.0 -38.0 -36.0 -36.0 -38.0 -20.0 6.0 4.0 4.0 8.0 11.0 19.0 13.0 13.0 18.0 13.0 16.0 22.0 16.0 12.0 7.0 -1.0 -1.0 0.0 -4.0 -1.0 -2.0 -4.0 -5.0 -7.0 -10.0 -15.0 -8.0 0.0 -1.0 -1.0 -4.0 -6.0 4.0 4.0 0.0 1.0 0.0 0.0 0.0 0.0 0.0 -1.0 -4.0 -7.0 2.0 10.0 4.0 -1.0 -2.0 1.0 0.0 0.0 -1.0 -3.0 -3.0 -3.0 0.0 -2.0 -3.0 0.0 -1.0 -1.0 -1.0 -6.0 -11.0 -11.0 -6.0 -5.0 0.0 8.0 7.0 5.0 6.0 4.0 3.0 4.0 7.0 6.0 4.0 5.0 4.0 1.0 -4.0 -11.0 -9.0 -5.0 -1.0 9.0 8.0 4.0 7.0 4.0 2.0 -5.0 -14.0 -11.0 -6.0 0.0 8.0 7.0 6.0 9.0 6.0 4.0 4.0 2.0 3.0 2.0 0.0 0.0 1.0 -1.0 -3.0 0.0 0.0 -2.0 -4.0 -5.0 -4.0 -3.0 -2.0 -2.0 -3.0 -1.0 -2.0 -2.0 0.0 0.0 -1.0 -3.0 -8.0 -8.0 2.0 1.0 -3.0 -2.0 -7.0 1.0 5.0 0.0 11.0 15.0 7.0 -1.0 -2.0 2.0 2.0 0.0 -3.0 -4.0 -1.0 0.0 -1.0 0.0 1.0 0.0 0.0 2.0 0.0 0.0 0.0 0.0 -2.0 -3.0 0.0 -2.0 -4.0 -6.0 -7.0 1.0 4.0 1.0 3.0 3.0 1.0 3.0 4.0 1.0 0.0 1.0 -4.0 -7.0 4.0 3.0 -8.0 -11.0 -16.0 -15.0 -2.0 5.0 6.0 4.0 11.0 11.0 4.0 7.0 7.0 7.0 8.0 4.0 5.0 6.0 0.0 2.0 4.0 7.0 13.0 5.0 -5.0 -2.0 -3.0 -4.0 -5.0 -12.0 -10.0 -2.0 0.0 -1.0 -1.0 -1.0 -1.0 0.0 3.0 4.0 -2.0 -3.0 -2.0 -8.0 -5.0 -5.0 -12.0 -10.0 -4.0 -6.0 -1.0 3.0 -4.0 -3.0 -4.0 0.0 6.0 1.0 4.0 2.0 1.0 4.0 0.0 2.0 5.0 5.0 1.0 -1.0 3.0 8.0 7.0 13.0 20.0 18.0 1.0 -16.0 -17.0 -29.0 -42.0 -38.0 -25.0 -6.0 12.0 19.0 23.0 27.0 22.0 17.0 14.0 5.0 3.0 6.0 6.0 8.0 -2.0 -4.0 0.0 -1.0 10.0 5.0 -8.0 -4.0 -8.0 -8.0 -4.0 -8.0 -4.0 -3.0 -4.0 -1.0 -2.0 -4.0 -3.0 -2.0 -2.0 -2.0 0.0 0.0 -3.0 -2.0 0.0 -1.0 -1.0 0.0 0.0 -4.0 -7.0 1.0 4.0 2.0 5.0 3.0 9.0 19.0 20.0 19.0 8.0 1.0 4.0 -5.0 -33.0 -56.0 -46.0 -24.0 -9.0 12.0 19.0 18.0 22.0 16.0 21.0 32.0 29.0 18.0 -8.0 -27.0 -18.0 -1.0 7.0 -9.0 -28.0 -25.0 -10.0 24.0 39.0 14.0 -27.0 -50.0 -15.0 37.0 54.0 38.0 -8.0 -51.0 -55.0 -42.0 -18.0 19.0 41.0 41.0 42.0 50.0 55.0 61.0 69.0 37.0 -51.0 -141.0 -182.0 -150.0 -83.0 -27.0 33.0 72.0 71.0 61.0 39.0 33.0 43.0 22.0 -2.0 -9.0 -18.0 -16.0 -5.0 10.0 19.0 13.0 16.0 25.0 21.0 10.0 12.0 -1.0 -21.0 17.0 44.0 -40.0 -144.0 -169.0 -138.0 -76.0 -18.0 29.0 69.0 83.0 90.0 85.0 59.0 42.0 47.0 54.0 46.0 50.0 60.0 60.0 59.0 10.0 -99.0 -177.0 -186.0 -171.0 -122.0 -40.0 24.0 77.0 90.0 65.0 62.0 41.0 16.0 18.0 4.0 1.0 14.0 14.0 21.0 24.0 16.0 5.0 -4.0 -11.0 -13.0 -8.0 -16.0 -20.0 -13.0 -15.0 -14.0 -9.0 -22.0 -48.0 -45.0 -21.0 -18.0 -11.0 11.0 19.0 25.0 48.0 59.0 61.0 54.0 12.0 -21.0 -34.0 -73.0 -69.0 -2.0 17.0 36.0 41.0 -42.0 -97.0 -105.0 -89.0 -29.0 15.0 50.0 76.0 72.0 70.0 65.0 50.0 35.0 27.0 18.0 3.0 1.0 0.0 -7.0 -10.0 -12.0 -12.0 -7.0 1.0 -5.0 -17.0 -6.0 9.0 9.0 3.0 -4.0 -34.0 -51.0 -43.0 -56.0 -62.0 -34.0 3.0 23.0 29.0 33.0 24.0 25.0 23.0 42.0 88.0 55.0 -21.0 -36.0 -28.0 -60.0 -83.0 -43.0 4.0 10.0 13.0 31.0 49.0 34.0 -29.0 -39.0 16.0 44.0 61.0 57.0 29.0 22.0 12.0 4.0 28.0 21.0 -44.0 -87.0 -83.0 -56.0 -42.0 -54.0 -40.0 -21.0 -11.0 -5.0 -26.0 -20.0 1.0 8.0 29.0 50.0 64.0 54.0 46.0 57.0 37.0 13.0 5.0 -3.0 -16.0 -28.0 -20.0 -11.0 -13.0 -11.0 -16.0 -33.0 -21.0 2.0 3.0 17.0 2.0 -24.0 -2.0 19.0 29.0 26.0 15.0 8.0 6.0 22.0 23.0 11.0 18.0 33.0 56.0 58.0 -14.0 -96.0 -112.0 -101.0 -80.0 -51.0 -25.0 -8.0 -16.0 -14.0 19.0 42.0 41.0 34.0 35.0 31.0 14.0 36.0 64.0 45.0 25.0 17.0 1.0 -17.0 -49.0 -129.0 -180.0 -126.0 -59.0 7.0 83.0 100.0 96.0 97.0 76.0 62.0 58.0 31.0 -12.0 -46.0 -34.0 -1.0 6.0 6.0 -8.0 -13.0 14.0 19.0 -5.0 -23.0 -42.0 -49.0 -28.0 -19.0 -30.0 -33.0 -26.0 -15.0 -12.0 2.0 8.0 -12.0 0.0 16.0 -3.0 -11.0 0.0 14.0 19.0 18.0 42.0 64.0 77.0 80.0 37.0 16.0 28.0 -9.0 -77.0 -115.0 -126.0 -129.0 -90.0 -13.0 20.0 45.0 91.0 97.0 73.0 31.0 -3.0 0.0 9.0 33.0 37.0 -2.0 -28.0 -34.0 -6.0 41.0 29.0 -5.0 2.0 0.0 -33.0 -53.0 -51.0 -61.0 -105.0 -107.0 -40.0 16.0 40.0 50.0 51.0 34.0 28.0 53.0 63.0 37.0 21.0 27.0 23.0 19.0 29.0 15.0 -12.0 -22.0 -32.0 -47.0 -43.0 -35.0 -31.0 -15.0 -12.0 -23.0 -16.0 -5.0 -3.0 -18.0 -27.0 5.0 24.0 6.0 13.0 40.0 48.0 42.0 23.0 4.0 3.0 27.0 44.0 28.0 19.0 19.0 5.0 -2.0 0.0 -28.0 -70.0 -107.0 -141.0 -126.0 -74.0 -35.0 -1.0 19.0 40.0 69.0 73.0 74.0 65.0 28.0 14.0 48.0 81.0 73.0 52.0 35.0 2.0 -25.0 -38.0 -41.0 -30.0 -15.0 -22.0 -69.0 -91.0 -65.0 -28.0 -10.0 -8.0 16.0 49.0 52.0 30.0 2.0 -28.0 -46.0 -38.0 -23.0 0.0 14.0 18.0 25.0 28.0 37.0 48.0 39.0 1.0 -26.0 -17.0 -5.0 -2.0 6.0 10.0 3.0 6.0 6.0 -11.0 -16.0 -14.0 -3.0 0.0 -9.0 2.0 23.0 52.0 61.0 27.0 -11.0 -26.0 -18.0 -24.0 -52.0 -58.0 -58.0 -76.0 -77.0 -41.0 -22.0 -61.0 -56.0 24.0 62.0 83.0 113.0 99.0 58.0 15.0 14.0 21.0 -2.0 0.0 22.0 45.0 49.0 9.0 -25.0 -2.0 65.0 41.0 -80.0 -132.0 -120.0 -59.0 -2.0 -13.0 28.0 73.0 40.0 26.0 31.0 1.0 -31.0 -30.0 -19.0 -10.0 -8.0 -39.0 -57.0 -18.0 -15.0 -43.0 -13.0 13.0 10.0 19.0 33.0 50.0 73.0 83.0 66.0 32.0 -3.0 -23.0 -38.0 -41.0 1.0 27.0 23.0 23.0 0.0 -19.0 -22.0 -22.0 -1.0 25.0 38.0 51.0 39.0 1.0 -51.0 -94.0 -83.0 -58.0 -43.0 -18.0 -4.0 -48.0 -104.0 -77.0 4.0 65.0 66.0 37.0 9.0 -19.0 -26.0 -1.0 52.0 65.0 34.0 13.0 -15.0 -26.0 2.0 40.0 62.0 84.0 77.0 33.0 38.0 53.0 13.0 -23.0 -17.0 -31.0 -84.0 -90.0 -41.0 0.0 8.0 -7.0 -84.0 -194.0 -169.0 -16.0 68.0 110.0 162.0 139.0 100.0 67.0 -7.0 -53.0 -52.0 -20.0 -2.0 -29.0 -47.0 -36.0 -20.0 -23.0 -6.0 2.0 -29.0 -26.0 -18.0 -9.0 16.0 35.0 59.0 56.0 43.0 51.0 50.0 41.0 43.0 50.0 1.0 -66.0 -41.0 -16.0 -42.0 -35.0 -12.0 -8.0 -28.0 -51.0 -62.0 -55.0 -18.0 7.0 14.0 21.0 25.0 27.0 36.0 57.0 79.0 64.0 11.0 -4.0 -8.0 -42.0 -56.0 -77.0 -94.0 -65.0 -36.0 -27.0 -31.0 -21.0 -7.0 -46.0 -73.0 -10.0 69.0 122.0 160.0 179.0 154.0 92.0 5.0 -124.0 -162.0 -109.0 -80.0 -45.0 -66.0 -60.0 13.0 25.0 68.0 109.0 90.0 90.0 80.0 67.0 31.0 -11.0 -22.0 -75.0 -91.0 -19.0 -31.0 -107.0 -75.0 -19.0 -26.0 11.0 71.0 84.0 88.0 85.0 67.0 34.0 -3.0 -40.0 -67.0 -57.0 -56.0 -77.0 -64.0 -29.0 14.0 48.0 53.0 57.0 58.0 59.0 74.0 61.0 15.0 -25.0 -76.0 -133.0 -164.0 -132.0 -13.0 64.0 33.0 37.0 52.0 -14.0 -78.0 -92.0 -58.0 -11.0 0.0 29.0 42.0 -16.0 -8.0 71.0 84.0 50.0 36.0 21.0 -31.0 -75.0 -44.0 28.0 47.0 45.0 83.0 64.0 34.0 50.0 13.0 -4.0 3.0 -20.0 12.0 72.0 84.0 85.0 84.0 16.0 -133.0 -229.0 -207.0 -187.0 -159.0 -44.0 53.0 63.0 30.0 0.0 18.0 36.0 22.0 28.0 14.0 -21.0 -11.0 1.0 5.0 39.0 85.0 114.0 104.0 80.0 55.0 4.0 -42.0 -67.0 -46.0 10.0 11.0 3.0 33.0 27.0 21.0 27.0 24.0 33.0 -1.0 -67.0 -121.0 -191.0 -225.0 -141.0 -68.0 -58.0 8.0 63.0 53.0 50.0 52.0 31.0 9.0 0.0 3.0 24.0 12.0 -18.0 -23.0 -26.0 -27.0 -27.0 1.0 33.0 37.0 99.0 192.0 213.0 168.0 118.0 87.0 2.0 -95.0 -79.0 -61.0 -111.0 -130.0 -98.0 -47.0 -43.0 -67.0 -53.0 -25.0 8.0 17.0 17.0 13.0 4.0 56.0 58.0 31.0 96.0 131.0 80.0 -7.0 -74.0 -76.0 -82.0 -61.0 1.0 11.0 -18.0 -41.0 -57.0 -56.0 -24.0 3.0 32.0 77.0 89.0 102.0 150.0 132.0 18.0 -49.0 -53.0 -124.0 -135.0 -11.0 2.0 -89.0 -118.0 -94.0 -51.0 -3.0 25.0 31.0 52.0 59.0 0.0 -42.0 -46.0 -36.0 1.0 0.0 -22.0 -6.0 4.0 9.0 51.0 81.0 59.0 21.0 14.0 35.0 32.0 26.0 50.0 59.0 48.0 18.0 -45.0 -45.0 21.0 14.0 -6.0 -7.0 -70.0 -88.0 -40.0 5.0 48.0 58.0 28.0 -44.0 -113.0 -147.0 -146.0 -59.0 73.0 130.0 130.0 146.0 118.0 34.0 -15.0 0.0 2.0 -56.0 -79.0 -46.0 -46.0 -70.0 -65.0 -17.0 39.0 68.0 102.0 116.0 71.0 4.0 -93.0 -187.0 -184.0 -132.0 -91.0 -33.0 33.0 85.0 118.0 111.0 88.0 75.0 -12.0 -92.0 5.0 80.0 48.0 74.0 79.0 58.0 84.0 69.0 0.0 -46.0 -50.0 -72.0 -128.0 -157.0 -126.0 -55.0 6.0 76.0 124.0 118.0 118.0 61.0 -66.0 -150.0 -145.0 -92.0 -59.0 -13.0 16.0 -22.0 -54.0 -48.0 -15.0 26.0 75.0 103.0 95.0 101.0 94.0 48.0 -6.0 -1.0 32.0 -3.0 -54.0 -80.0 -94.0 -106.0 -72.0 35.0 88.0 102.0 140.0 116.0 30.0 -82.0 -134.0 -120.0 -149.0 -124.0 -38.0 -18.0 8.0 56.0 97.0 118.0 82.0 60.0 35.0 -62.0 -157.0 -135.0 -12.0 104.0 160.0 178.0 189.0 172.0 90.0 -41.0 -138.0 -184.0 -214.0 -166.0 -97.0 -95.0 -100.0 -94.0 -57.0 -17.0 -10.0 53.0 123.0 153.0 172.0 111.0 31.0 69.0 133.0 107.0 81.0 71.0 36.0 9.0 11.0 5.0 -64.0 -140.0 -172.0 -209.0 -224.0 -110.0 7.0 4.0 1.0 -4.0 19.0 76.0 60.0 70.0 154.0 147.0 28.0 -45.0 -47.0 -95.0 -183.0 -146.0 10.0 105.0 102.0 56.0 10.0 -13.0 -29.0 -39.0 6.0 69.0 34.0 -8.0 0.0 -43.0 -93.0 -68.0 -15.0 -2.0 -12.0 13.0 35.0 29.0 17.0 -11.0 -21.0 -36.0 -41.0 19.0 52.0 90.0 164.0 144.0 126.0 142.0 81.0 19.0 -28.0 -86.0 -169.0 -246.0 -135.0 2.0 -1.0 -12.0 -43.0 -63.0 -31.0 -4.0 -15.0 -16.0 57.0 44.0 -13.0 44.0 77.0 67.0 76.0 57.0 15.0 -24.0 -30.0 -17.0 -28.0 -11.0 37.0 9.0 -41.0 -30.0 -21.0 10.0 86.0 125.0 106.0 60.0 -16.0 -166.0 -270.0 -192.0 -115.0 -108.0 -53.0 -28.0 -19.0 31.0 70.0 115.0 123.0 88.0 71.0 27.0 -42.0 -27.0 48.0 45.0 27.0 53.0 42.0 22.0 5.0 -29.0 -31.0 -29.0 -12.0 49.0 63.0 19.0 -29.0 -29.0 61.0 119.0 83.0 19.0 -79.0 -220.0 -247.0 -78.0 46.0 18.0 -12.0 -15.0 -27.0 -54.0 -55.0 7.0 92.0 95.0 24.0 11.0 17.0 6.0 23.0 0.0 -24.0 31.0 108.0 138.0 105.0 36.0 -47.0 -132.0 -137.0 -53.0 -1.0 7.0 7.0 -33.0 -66.0 -69.0 -67.0 -25.0 38.0 84.0 115.0 139.0 139.0 95.0 44.0 3.0 -53.0 -121.0 -127.0 -40.0 22.0 -1.0 -37.0 -72.0 -106.0 -85.0 -28.0 24.0 39.0 21.0 24.0 32.0 34.0 83.0 100.0 30.0 -10.0 -22.0 -63.0 -97.0 -68.0 9.0 32.0 19.0 35.0 37.0 44.0 44.0 5.0 -21.0 -35.0 -70.0 -78.0 -25.0 10.0 -12.0 -65.0 -106.0 -79.0 -23.0 0.0 7.0 32.0 78.0 133.0 170.0 111.0 30.0 29.0 40.0 8.0 -49.0 -55.0 -32.0 -23.0 -1.0 -11.0 -6.0 44.0 72.0 74.0 28.0 -32.0 -63.0 -56.0 8.0 49.0 35.0 48.0 54.0 15.0 -20.0 -75.0 -129.0 -126.0 -98.0 -58.0 -32.0 -43.0 -21.0 48.0 73.0 37.0 20.0 29.0 40.0 46.0 14.0 -34.0 -39.0 -10.0 12.0 37.0 66.0 61.0 33.0 14.0 -5.0 -19.0 -26.0 -39.0 -36.0 -23.0 -52.0 -145.0 -181.0 -123.0 -89.0 -32.0 38.0 62.0 77.0 43.0 38.0 96.0 64.0 10.0 31.0 63.0 66.0 48.0 47.0 77.0 88.0 69.0 37.0 -15.0 -53.0 -68.0 -72.0 -20.0 48.0 36.0 -23.0 -67.0 -78.0 -53.0 -27.0 0.0 32.0 30.0 6.0 -31.0 -61.0 -28.0 38.0 51.0 13.0 12.0 21.0 -39.0 -104.0 -84.0 -28.0 0.0 17.0 48.0 77.0 79.0 69.0 70.0 51.0 26.0 12.0 -20.0 -40.0 -45.0 -69.0 -87.0 -88.0 -71.0 -62.0 -60.0 -23.0 17.0 37.0 59.0 81.0 100.0 95.0 69.0 48.0 18.0 -47.0 -84.0 -25.0 23.0 24.0 35.0 0.0 -53.0 -81.0 -100.0 -83.0 -24.0 22.0 14.0 -18.0 -36.0 -27.0 -11.0 -1.0 33.0 77.0 88.0 78.0 90.0 103.0 83.0 42.0 -17.0 -85.0 -98.0 -37.0 4.0 -11.0 -36.0 -64.0 -73.0 -30.0 -1.0 10.0 -3.0 -61.0 -24.0 48.0 21.0 21.0 61.0 28.0 -6.0 -4.0 3.0 17.0 5.0 -19.0 -24.0 -25.0 -8.0 31.0 55.0 35.0 15.0 35.0 56.0 57.0 53.0 41.0 29.0 8.0 -26.0 -45.0 -62.0 -85.0 -103.0 -121.0 -118.0 -107.0 -86.0 -29.0 14.0 37.0 82.0 112.0 109.0 81.0 48.0 43.0 19.0 -14.0 9.0 20.0 -6.0 -16.0 -22.0 -13.0 -6.0 -24.0 -18.0 -9.0 -35.0 -63.0 -40.0 32.0 87.0 86.0 19.0 -37.0 -31.0 -29.0 -6.0 23.0 0.0 -42.0 -101.0 -120.0 -99.0 -58.0 32.0 43.0 0.0 15.0 19.0 50.0 99.0 100.0 91.0 79.0 66.0 56.0 37.0 18.0 15.0 13.0 -2.0 -14.0 -16.0 -22.0 -31.0 -43.0 -66.0 -69.0 -51.0 -53.0 -56.0 -61.0 -74.0 -54.0 -7.0 30.0 52.0 33.0 0.0 5.0 30.0 51.0 53.0 26.0 -28.0 -49.0 -13.0 17.0 38.0 56.0 63.0 47.0 21.0 26.0 29.0 3.0 -15.0 -23.0 -25.0 -40.0 -48.0 -12.0 10.0 4.0 0.0 -10.0 -3.0 8.0 2.0 1.0 -4.0 -13.0 -11.0 -5.0 0.0 5.0 19.0 21.0 -7.0 -19.0 -2.0 0.0 -39.0 -91.0 -94.0 -75.0 -55.0 -12.0 18.0 31.0 45.0 47.0 39.0 32.0 42.0 53.0 45.0 18.0 -12.0 -15.0 -3.0 10.0 19.0 11.0 17.0 27.0 21.0 33.0 50.0 15.0 -24.0 -37.0 -66.0 -93.0 -102.0 -71.0 -5.0 8.0 0.0 16.0 26.0 28.0 31.0 37.0 31.0 3.0 -22.0 -20.0 -1.0 20.0 27.0 21.0 27.0 23.0 13.0 20.0 11.0 -17.0 -28.0 -24.0 -21.0 -19.0 -13.0 5.0 10.0 -9.0 -13.0 7.0 8.0 -6.0 -2.0 3.0 -2.0 -2.0 -1.0 -6.0 -12.0 -3.0 13.0 17.0 9.0 -1.0 1.0 9.0 2.0 2.0 1.0 -5.0 -1.0 -3.0 -5.0 -2.0 -5.0 -3.0 -3.0 -6.0 -5.0 -3.0 -1.0 5.0 10.0 2.0 -1.0 -2.0 -29.0 -37.0 -13.0 -9.0 0.0 21.0 33.0 38.0 17.0 -1.0 15.0 14.0 -19.0 -20.0 -7.0 -30.0 -52.0 -40.0 -3.0 39.0 60.0 38.0 3.0 -6.0 -3.0 0.0 0.0 -11.0 -1.0 6.0 -9.0 -1.0 0.0 -19.0 2.0 26.0 26.0 42.0 32.0 -3.0 -12.0 -6.0 -8.0 -13.0 -9.0 5.0 7.0 -3.0 2.0 -3.0 -11.0 -4.0 -8.0 -6.0 -7.0 -9.0 -5.0 -6.0 -4.0 -2.0 -6.0 -12.0 -6.0 3.0 3.0 2.0 3.0 1.0 1.0 1.0 1.0 2.0 0.0 0.0 3.0 3.0 3.0 -3.0 -7.0 3.0 1.0 -3.0 2.0 0.0 -4.0 -5.0 1.0 6.0 -2.0 -10.0 -11.0 2.0 20.0 30.0 32.0 31.0 50.0 85.0 84.0 -9.0 -108.0 -136.0 -182.0 -178.0 -76.0 -18.0 17.0 75.0 106.0 82.0 43.0 45.0 44.0 43.0 44.0 27.0 15.0 -11.0 -21.0 -12.0 -10.0 3.0 8.0 11.0 14.0 6.0 6.0 -1.0 -13.0 -7.0 -2.0 -11.0 -10.0 -2.0 -14.0 -16.0 -10.0 -14.0 -15.0 -19.0 -16.0 -7.0 -2.0 1.0 1.0 1.0 -1.0 0.0 0.0 -2.0 0.0 0.0 0.0 1.0 -1.0 0.0 0.0 -3.0 -1.0 0.0 0.0 1.0 1.0 5.0 9.0 0.0 0.0 4.0 -3.0 -3.0 -5.0 -10.0 -5.0 -4.0 -4.0 -3.0 -4.0 -3.0 2.0 12.0 11.0 16.0 35.0 43.0 55.0 54.0 15.0 -9.0 -25.0 -62.0 -92.0 -87.0 -37.0 0.0 5.0 25.0 24.0 0.0 -16.0 -19.0 13.0 55.0 62.0 37.0 15.0 6.0 -3.0 -5.0 -2.0 9.0 -5.0 -16.0 10.0 14.0 10.0 11.0 3.0 5.0 0.0 -2.0 -3.0 -10.0 -13.0 -9.0 -7.0 -16.0 -18.0 -16.0 -18.0 -7.0 -10.0 -15.0 -7.0 -14.0 -9.0 3.0 -1.0 3.0 5.0 1.0 2.0 1.0 1.0 3.0 3.0 5.0 4.0 1.0 0.0 2.0 3.0 2.0 3.0 5.0 5.0 3.0 3.0 4.0 3.0 1.0 0.0 -1.0 0.0 1.0 0.0 0.0 0.0 0.0 1.0 -1.0 -3.0 0.0 1.0 0.0 1.0 3.0 4.0 -1.0 -5.0 6.0 5.0 5.0 23.0 26.0 14.0 5.0 6.0 14.0 9.0 -21.0 -72.0 -98.0 -93.0 -49.0 15.0 38.0 32.0 24.0 28.0 44.0 35.0 6.0 -13.0 -6.0 0.0 -9.0 -3.0 8.0 19.0 27.0 23.0 19.0 14.0 9.0 8.0 6.0 3.0 1.0 -2.0 -10.0 -15.0 -16.0 -14.0 -14.0 -13.0 -9.0 -8.0 -16.0 -14.0 -1.0 -3.0 -10.0 -3.0 -6.0 -10.0 -10.0 -11.0 -6.0 -7.0 -6.0 1.0 9.0 10.0 12.0 15.0 4.0 2.0 8.0 2.0 1.0 1.0 -3.0 -2.0 1.0 -1.0 -1.0 0.0 4.0 10.0 8.0 6.0 3.0 1.0 0.0 -7.0 0.0 9.0 6.0 11.0 13.0 7.0 11.0 11.0 0.0 -5.0 -4.0 0.0 1.0 1.0 15.0 14.0 -4.0 -1.0 0.0 -14.0 -31.0 -59.0 -67.0 -35.0 -8.0 -11.0 3.0 29.0 31.0 37.0 17.0 -13.0 16.0 24.0 -15.0 -16.0 -11.0 -19.0 -3.0 3.0 2.0 9.0 19.0 26.0 33.0 44.0 34.0 23.0 19.0 6.0 -1.0 -1.0 -3.0 -15.0 -24.0 -26.0 -25.0 -23.0 -32.0 -18.0 9.0 9.0 -4.0 -23.0 -16.0 0.0 -11.0 -2.0 4.0 -2.0 5.0 2.0 0.0 5.0 0.0 6.0 10.0 0.0 5.0 12.0 0.0 -4.0 0.0 0.0 -1.0 -7.0 -14.0 -6.0 3.0 -1.0 -1.0 1.0 0.0 4.0 3.0 2.0 6.0 4.0 1.0 1.0 0.0 -5.0 -9.0 -7.0 -4.0 0.0 9.0 9.0 5.0 8.0 8.0 8.0 7.0 11.0 13.0 0.0 -5.0 0.0 -5.0 -13.0 -7.0 4.0 3.0 0.0 -3.0 -18.0 -19.0 9.0 26.0 12.0 1.0 -5.0 -21.0 -23.0 -20.0 -10.0 13.0 26.0 25.0 16.0 1.0 9.0 15.0 0.0 3.0 15.0 12.0 9.0 6.0 3.0 2.0 -1.0 -7.0 -17.0 -16.0 -13.0 -15.0 -12.0 -11.0 -12.0 -9.0 -12.0 -19.0 -16.0 -10.0 -13.0 -9.0 0.0 2.0 0.0 7.0 10.0 7.0 10.0 9.0 7.0 5.0 2.0 4.0 4.0 4.0 5.0 5.0 3.0 -4.0 -3.0 6.0 4.0 0.0 9.0 11.0 1.0 -2.0 0.0 0.0 1.0 0.0 -3.0 -1.0 0.0 0.0 0.0 -1.0 2.0 3.0 0.0 0.0 0.0 -2.0 -2.0 -2.0 5.0 12.0 7.0 1.0 -9.0 -23.0 -19.0 -23.0 -28.0 -14.0 -8.0 -4.0 20.0 20.0 7.0 14.0 9.0 4.0 6.0 0.0 -1.0 7.0 13.0 17.0 11.0 4.0 14.0 13.0 6.0 5.0 -14.0 -23.0 -11.0 -3.0 -5.0 -7.0 -1.0 -1.0 -1.0 0.0 0.0 -2.0 -5.0 -3.0 -2.0 -2.0 2.0 7.0 7.0 -5.0 -7.0 -1.0 -3.0 1.0 0.0 -3.0 0.0 4.0 6.0 -3.0 -5.0 -2.0 -7.0 -1.0 0.0 -4.0 -1.0 -4.0 -4.0 -2.0 -5.0 -6.0 0.0 1.0 1.0 8.0 6.0 3.0 4.0 1.0 0.0 2.0 3.0 4.0 1.0 1.0 2.0 -2.0 -3.0 1.0 2.0 0.0 -6.0 -4.0 5.0 -2.0 -8.0 14.0 15.0 -10.0 -23.0 -24.0 -12.0 6.0 12.0 24.0 40.0 17.0 -9.0 1.0 3.0 -5.0 -5.0 -4.0 9.0 10.0 -2.0 7.0 13.0 0.0 -6.0 -4.0 -5.0 -7.0 -4.0 -4.0 -5.0 -6.0 -7.0 -6.0 -5.0 -5.0 -8.0 -9.0 0.0 1.0 -2.0 1.0 -5.0 -13.0 -10.0 -5.0 -2.0 4.0 16.0 22.0 12.0 0.0 1.0 3.0 -1.0 0.0 1.0 2.0 2.0 0.0 3.0 0.0 -2.0 0.0 0.0 0.0 2.0 3.0 2.0 0.0 0.0 0.0 4.0 12.0 10.0 2.0 1.0 10.0 8.0 -5.0 -11.0 -10.0 -16.0 -32.0 -34.0 -19.0 -5.0 1.0 -5.0 5.0 25.0 16.0 8.0 3.0 -1.0 10.0 26.0 28.0 -15.0 -55.0 -43.0 -29.0 -8.0 12.0 14.0 10.0 5.0 20.0 26.0 10.0 17.0 34.0 21.0 -3.0 -4.0 -2.0 -12.0 -14.0 -9.0 -14.0 -14.0 -6.0 -11.0 -2.0 9.0 6.0 5.0 6.0 6.0 8.0 9.0 -1.0 -5.0 1.0 0.0 -2.0 -7.0 -14.0 -10.0 -3.0 3.0 5.0 1.0 3.0 3.0 1.0 0.0 -1.0 0.0 0.0 -1.0 1.0 2.0 0.0 -5.0 -11.0 -5.0 10.0 5.0 1.0 11.0 13.0 12.0 10.0 0.0 -5.0 -6.0 -6.0 -7.0 -7.0 -12.0 -11.0 -6.0 -8.0 -2.0 0.0 -3.0 2.0 2.0 0.0 2.0 2.0 0.0 -2.0 7.0 26.0 28.0 13.0 0.0 -3.0 -13.0 -19.0 0.0 -5.0 -36.0 -41.0 -46.0 -48.0 -26.0 -6.0 9.0 31.0 54.0 56.0 50.0 55.0 39.0 10.0 -11.0 -15.0 -10.0 -5.0 1.0 -3.0 -3.0 -3.0 -8.0 -3.0 -2.0 -4.0 -4.0 -10.0 -11.0 -2.0 0.0 -1.0 0.0 2.0 7.0 4.0 0.0 -5.0 -15.0 -15.0 -13.0 -5.0 -2.0 -6.0 1.0 -1.0 -10.0 0.0 6.0 7.0 11.0 8.0 4.0 7.0 11.0 10.0 2.0 0.0 2.0 0.0 0.0 -6.0 -11.0 0.0 0.0 -4.0 1.0 0.0 0.0 -4.0 -12.0 -1.0 6.0 9.0 9.0 0.0 -8.0 -11.0 -14.0 -10.0 0.0 18.0 38.0 52.0 59.0 48.0 16.0 -9.0 -31.0 -65.0 -57.0 -48.0 -108.0 -142.0 -95.0 -17.0 49.0 97.0 103.0 64.0 35.0 14.0 7.0 32.0 49.0 42.0 27.0 19.0 9.0 0.0 5.0 -10.0 -25.0 -17.0 -20.0 -26.0 -24.0 -14.0 -10.0 -12.0 -6.0 -8.0 -8.0 -4.0 -5.0 -2.0 -2.0 -1.0 1.0 -1.0 -1.0 -1.0 -4.0 -1.0 1.0 0.0 -1.0 -6.0 -6.0 5.0 4.0 -7.0 -4.0 4.0 4.0 2.0 3.0 3.0 0.0 -8.0 -7.0 0.0 1.0 7.0 2.0 -1.0 6.0 -2.0 -2.0 9.0 11.0 13.0 20.0 47.0 63.0 54.0 22.0 -24.0 -43.0 -49.0 -86.0 -107.0 -59.0 -11.0 17.0 52.0 47.0 44.0 37.0 12.0 12.0 -2.0 -12.0 2.0 0.0 5.0 31.0 33.0 12.0 8.0 14.0 5.0 -9.0 -41.0 -54.0 -40.0 -30.0 -15.0 -11.0 -8.0 3.0 -12.0 -13.0 0.0 -8.0 -15.0 -13.0 10.0 26.0 14.0 15.0 13.0 6.0 11.0 7.0 4.0 2.0 -7.0 2.0 9.0 0.0 14.0 33.0 36.0 34.0 9.0 -7.0 -11.0 -28.0 -41.0 -44.0 -43.0 -22.0 12.0 25.0 30.0 35.0 23.0 11.0 7.0 -2.0 -15.0 -20.0 -10.0 -2.0 -2.0 6.0 22.0 29.0 18.0 -18.0 -60.0 -79.0 -64.0 -30.0 -5.0 13.0 21.0 29.0 36.0 28.0 21.0 7.0 0.0 2.0 7.0 19.0 23.0 25.0 27.0 22.0 22.0 36.0 10.0 -59.0 -73.0 -45.0 -41.0 -34.0 -18.0 -18.0 -18.0 -2.0 12.0 24.0 33.0 27.0 26.0 28.0 28.0 18.0 7.0 7.0 0.0 -7.0 -13.0 -15.0 -16.0 -22.0 -18.0 -9.0 -4.0 -2.0 -9.0 -8.0 0.0 0.0 -1.0 0.0 -1.0 0.0 3.0 1.0 5.0 4.0 0.0 3.0 4.0 3.0 3.0 2.0 -3.0 -6.0 10.0 17.0 11.0 11.0 14.0 34.0 58.0 25.0 -56.0 -102.0 -76.0 -31.0 -3.0 -1.0 -2.0 15.0 22.0 11.0 8.0 11.0 0.0 -9.0 8.0 40.0 44.0 24.0 14.0 -17.0 -69.0 -78.0 -55.0 -28.0 15.0 41.0 41.0 45.0 40.0 24.0 14.0 12.0 17.0 14.0 5.0 5.0 0.0 -7.0 -6.0 -9.0 -10.0 -9.0 -11.0 -15.0 -19.0 -11.0 -1.0 -8.0 -11.0 -1.0 0.0 -1.0 -1.0 0.0 5.0 6.0 3.0 6.0 7.0 2.0 3.0 -3.0 -9.0 3.0 2.0 -11.0 -11.0 -12.0 -9.0 -4.0 -11.0 1.0 31.0 34.0 17.0 -12.0 -35.0 -26.0 -12.0 -6.0 11.0 35.0 35.0 -8.0 -35.0 -22.0 -13.0 4.0 30.0 32.0 27.0 35.0 24.0 -25.0 -102.0 -134.0 -75.0 -20.0 15.0 55.0 60.0 56.0 52.0 40.0 39.0 33.0 22.0 13.0 2.0 0.0 1.0 -4.0 -9.0 -14.0 -20.0 -23.0 -14.0 -13.0 -22.0 -13.0 -22.0 -37.0 -11.0 10.0 7.0 2.0 3.0 5.0 19.0 36.0 21.0 -3.0 -22.0 -32.0 -1.0 21.0 -16.0 -49.0 -37.0 13.0 49.0 39.0 24.0 0.0 -20.0 -6.0 0.0 -13.0 5.0 20.0 7.0 20.0 34.0 23.0 8.0 -23.0 -34.0 -21.0 -16.0 -1.0 1.0 -4.0 -1.0 2.0 12.0 10.0 -3.0 -17.0 -18.0 1.0 0.0 -8.0 -10.0 -7.0 32.0 52.0 17.0 -4.0 -3.0 0.0 -7.0 0.0 17.0 -56.0 -177.0 -213.0 -148.0 -32.0 61.0 102.0 123.0 133.0 132.0 114.0 71.0 32.0 28.0 20.0 -7.0 -7.0 -6.0 -26.0 -11.0 -2.0 -23.0 -28.0 -23.0 -27.0 -23.0 -4.0 5.0 7.0 7.0 -3.0 -3.0 -4.0 -7.0 -15.0 -56.0 -85.0 -73.0 -52.0 -27.0 -7.0 17.0 57.0 76.0 66.0 58.0 64.0 52.0 7.0 -19.0 -17.0 -25.0 -37.0 -57.0 -80.0 -71.0 -65.0 -58.0 -18.0 17.0 37.0 63.0 83.0 84.0 74.0 53.0 45.0 33.0 15.0 14.0 -17.0 -45.0 -6.0 31.0 29.0 -14.0 -73.0 -82.0 -69.0 -47.0 -10.0 11.0 4.0 -23.0 -33.0 -30.0 -29.0 -3.0 31.0 44.0 35.0 23.0 8.0 -8.0 -6.0 16.0 41.0 43.0 32.0 32.0 32.0 18.0 -14.0 -20.0 -2.0 -15.0 -17.0 -20.0 -69.0 -83.0 -45.0 -12.0 0.0 12.0 35.0 48.0 41.0 30.0 11.0 1.0 -5.0 -4.0 22.0 19.0 18.0 44.0 26.0 4.0 18.0 0.0 -57.0 -85.0 -83.0 -85.0 -44.0 4.0 27.0 64.0 72.0 64.0 67.0 47.0 20.0 -13.0 -43.0 -33.0 -32.0 -74.0 -110.0 -92.0 -61.0 -25.0 31.0 56.0 61.0 65.0 50.0 27.0 8.0 22.0 35.0 15.0 -19.0 -49.0 -39.0 -14.0 18.0 67.0 42.0 -22.0 -17.0 -33.0 -60.0 -6.0 41.0 48.0 40.0 10.0 -11.0 -20.0 -50.0 -73.0 -55.0 -21.0 -7.0 -5.0 30.0 39.0 27.0 11.0 -23.0 18.0 56.0 32.0 31.0 57.0 87.0 55.0 8.0 0.0 -28.0 -65.0 -94.0 -98.0 -59.0 -20.0 -16.0 -11.0 15.0 17.0 -10.0 -17.0 -9.0 -11.0 0.0 28.0 55.0 78.0 89.0 67.0 33.0 15.0 -12.0 -22.0 -3.0 -31.0 -61.0 -50.0 -78.0 -126.0 -95.0 -38.0 -28.0 15.0 95.0 131.0 146.0 119.0 0.0 -124.0 -134.0 -67.0 -82.0 -56.0 82.0 94.0 43.0 39.0 30.0 43.0 61.0 88.0 60.0 -7.0 -2.0 -51.0 -143.0 -109.0 -34.0 2.0 6.0 -27.0 -30.0 -13.0 -21.0 1.0 35.0 30.0 41.0 63.0 56.0 58.0 59.0 7.0 -57.0 -53.0 -17.0 8.0 22.0 40.0 84.0 113.0 91.0 20.0 -80.0 -212.0 -298.0 -214.0 -76.0 -28.0 -23.0 -25.0 15.0 75.0 79.0 95.0 100.0 55.0 53.0 75.0 67.0 55.0 34.0 7.0 3.0 28.0 47.0 0.0 -38.0 -76.0 -204.0 -197.0 -21.0 85.0 152.0 170.0 123.0 67.0 -64.0 -185.0 -202.0 -146.0 -19.0 24.0 -43.0 -25.0 38.0 50.0 63.0 85.0 88.0 52.0 44.0 91.0 101.0 78.0 60.0 10.0 -103.0 -172.0 -137.0 -66.0 6.0 10.0 -27.0 -23.0 -47.0 -67.0 -9.0 52.0 66.0 53.0 25.0 -7.0 -13.0 7.0 24.0 32.0 52.0 52.0 26.0 16.0 11.0 9.0 -1.0 -16.0 -9.0 0.0 -11.0 -58.0 -120.0 -147.0 -140.0 -110.0 -57.0 1.0 45.0 72.0 106.0 116.0 123.0 133.0 68.0 -40.0 -130.0 -151.0 -99.0 -36.0 11.0 23.0 27.0 27.0 -3.0 -6.0 17.0 29.0 43.0 44.0 74.0 134.0 108.0 61.0 74.0 13.0 -122.0 -131.0 -25.0 -39.0 -102.0 -62.0 -44.0 -3.0 80.0 74.0 70.0 91.0 70.0 5.0 -65.0 -97.0 -134.0 -107.0 -14.0 -4.0 -37.0 -20.0 18.0 34.0 45.0 27.0 -33.0 -44.0 8.0 63.0 85.0 33.0 -61.0 -46.0 45.0 16.0 -17.0 29.0 31.0 17.0 0.0 -32.0 -53.0 -58.0 -37.0 -33.0 -34.0 19.0 69.0 78.0 98.0 95.0 69.0 77.0 53.0 -47.0 -117.0 -70.0 -17.0 -46.0 -66.0 -45.0 -86.0 -110.0 22.0 112.0 78.0 60.0 13.0 -20.0 -11.0 -58.0 -73.0 -46.0 -44.0 -1.0 38.0 62.0 90.0 54.0 0.0 -40.0 -81.0 -72.0 -6.0 29.0 19.0 40.0 55.0 45.0 35.0 7.0 3.0 20.0 49.0 102.0 88.0 34.0 0.0 -93.0 -154.0 -129.0 -116.0 -127.0 -98.0 -21.0 9.0 39.0 78.0 59.0 44.0 51.0 77.0 104.0 92.0 65.0 58.0 41.0 -13.0 -23.0 -15.0 -62.0 -99.0 -88.0 -44.0 -17.0 21.0 86.0 101.0 73.0 10.0 -100.0 -230.0 -241.0 -94.0 10.0 47.0 70.0 1.0 -62.0 9.0 82.0 47.0 15.0 35.0 28.0 -11.0 -35.0 4.0 35.0 -15.0 -24.0 35.0 63.0 62.0 77.0 87.0 56.0 -12.0 -75.0 -82.0 -61.0 -18.0 66.0 104.0 99.0 95.0 47.0 -27.0 -69.0 -99.0 -173.0 -177.0 -114.0 -99.0 -40.0 21.0 46.0 114.0 149.0 143.0 143.0 119.0 50.0 -56.0 -156.0 -113.0 9.0 39.0 14.0 -46.0 -95.0 -84.0 -65.0 -34.0 -11.0 2.0 26.0 40.0 32.0 10.0 -3.0 -18.0 -30.0 -47.0 -41.0 73.0 177.0 153.0 123.0 107.0 10.0 -95.0 -81.0 -19.0 -66.0 -142.0 -98.0 -38.0 -28.0 30.0 91.0 75.0 -32.0 -142.0 -93.0 -20.0 4.0 86.0 138.0 137.0 94.0 15.0 -1.0 -38.0 -83.0 -38.0 -20.0 -29.0 -9.0 -18.0 -51.0 -50.0 -14.0 -16.0 -1.0 46.0 35.0 -8.0 -26.0 5.0 44.0 100.0 174.0 93.0 -45.0 -60.0 -109.0 -171.0 -78.0 72.0 142.0 126.0 62.0 -47.0 -174.0 -243.0 -218.0 -69.0 73.0 70.0 66.0 83.0 42.0 39.0 80.0 110.0 109.0 77.0 54.0 6.0 -40.0 -4.0 38.0 23.0 0.0 -3.0 20.0 -6.0 -70.0 -67.0 -84.0 -125.0 -93.0 -26.0 -4.0 2.0 24.0 -32.0 -152.0 -195.0 -111.0 -15.0 20.0 57.0 96.0 158.0 224.0 229.0 186.0 103.0 11.0 -100.0 -190.0 -130.0 -5.0 22.0 -31.0 -51.0 -19.0 -20.0 -11.0 42.0 71.0 64.0 44.0 24.0 -38.0 -109.0 -80.0 -46.0 -22.0 35.0 28.0 21.0 13.0 -13.0 51.0 96.0 87.0 75.0 -9.0 -112.0 -159.0 -153.0 -91.0 12.0 96.0 95.0 11.0 -69.0 -49.0 17.0 17.0 16.0 42.0 48.0 68.0 81.0 65.0 -2.0 -125.0 -167.0 -91.0 -43.0 -39.0 9.0 39.0 33.0 28.0 14.0 16.0 32.0 68.0 101.0 72.0 29.0 28.0 38.0 38.0 23.0 -16.0 -90.0 -131.0 -62.0 -8.0 -41.0 -39.0 -2.0 -28.0 -77.0 -39.0 24.0 33.0 32.0 -25.0 -59.0 64.0 133.0 68.0 46.0 45.0 29.0 5.0 -23.0 18.0 51.0 -10.0 -38.0 -36.0 -115.0 -166.0 -72.0 63.0 107.0 90.0 70.0 60.0 44.0 -7.0 -29.0 -55.0 -118.0 -112.0 -50.0 12.0 49.0 37.0 32.0 56.0 40.0 -6.0 -9.0 17.0 7.0 -26.0 -57.0 -64.0 -23.0 -14.0 -28.0 -3.0 -2.0 -26.0 -41.0 -34.0 0.0 49.0 117.0 144.0 113.0 72.0 -7.0 -132.0 -209.0 -141.0 10.0 66.0 41.0 49.0 44.0 23.0 39.0 63.0 67.0 54.0 8.0 -48.0 -24.0 21.0 -18.0 -51.0 -14.0 9.0 -16.0 -28.0 -46.0 -110.0 -151.0 -105.0 21.0 137.0 140.0 95.0 63.0 -82.0 -277.0 -233.0 -32.0 89.0 110.0 83.0 91.0 94.0 52.0 52.0 53.0 6.0 -32.0 -73.0 -86.0 6.0 95.0 117.0 115.0 92.0 88.0 54.0 -4.0 -28.0 -63.0 -102.0 -125.0 -116.0 -94.0 -52.0 4.0 8.0 30.0 61.0 52.0 65.0 43.0 -6.0 -14.0 -25.0 -40.0 -8.0 10.0 -37.0 -77.0 -56.0 -12.0 -31.0 -64.0 -28.0 -39.0 -89.0 -78.0 -56.0 -27.0 33.0 67.0 57.0 57.0 64.0 26.0 34.0 100.0 94.0 83.0 101.0 91.0 65.0 -14.0 -66.0 -19.0 12.0 -19.0 -62.0 -85.0 -87.0 -79.0 -70.0 -52.0 1.0 54.0 71.0 101.0 98.0 55.0 14.0 -23.0 -15.0 -10.0 -24.0 -29.0 -44.0 -50.0 -77.0 -89.0 -28.0 21.0 30.0 39.0 46.0 33.0 -16.0 -47.0 6.0 57.0 44.0 29.0 24.0 18.0 7.0 -3.0 -23.0 -60.0 -72.0 -60.0 -47.0 -22.0 47.0 83.0 26.0 23.0 73.0 65.0 44.0 20.0 -87.0 -232.0 -243.0 -119.0 -4.0 33.0 26.0 24.0 28.0 43.0 84.0 87.0 83.0 108.0 118.0 115.0 90.0 65.0 46.0 4.0 -32.0 -57.0 -70.0 -68.0 -60.0 -41.0 -31.0 -44.0 -61.0 -45.0 -8.0 13.0 14.0 8.0 -2.0 -17.0 -13.0 -21.0 -34.0 -36.0 -78.0 -110.0 -62.0 9.0 49.0 65.0 81.0 94.0 90.0 65.0 19.0 -32.0 -47.0 -34.0 -11.0 -3.0 -28.0 -35.0 -38.0 -38.0 -12.0 -11.0 -16.0 -8.0 2.0 28.0 59.0 72.0 78.0 94.0 89.0 67.0 45.0 0.0 -30.0 -11.0 35.0 55.0 29.0 -17.0 -70.0 -105.0 -140.0 -137.0 -51.0 -40.0 -81.0 -55.0 -29.0 -5.0 13.0 31.0 66.0 100.0 143.0 161.0 137.0 86.0 24.0 -44.0 -124.0 -151.0 -102.0 -53.0 -70.0 -99.0 -71.0 -34.0 2.0 20.0 10.0 48.0 104.0 102.0 65.0 17.0 -2.0 16.0 -17.0 -54.0 -15.0 4.0 -8.0 -22.0 -40.0 -45.0 -32.0 1.0 34.0 66.0 98.0 97.0 61.0 43.0 49.0 18.0 -27.0 -29.0 -31.0 -89.0 -158.0 -149.0 -107.0 -82.0 -39.0 2.0 36.0 82.0 114.0 108.0 103.0 106.0 70.0 19.0 -16.0 -72.0 -113.0 -79.0 -30.0 5.0 44.0 58.0 49.0 25.0 24.0 31.0 -10.0 -38.0 -34.0 -49.0 -71.0 -43.0 22.0 45.0 34.0 36.0 40.0 52.0 34.0 2.0 -11.0 -39.0 -41.0 5.0 28.0 -36.0 -125.0 -136.0 -86.0 -28.0 1.0 17.0 40.0 56.0 60.0 42.0 31.0 39.0 27.0 14.0 19.0 8.0 4.0 13.0 7.0 -8.0 -19.0 -23.0 -36.0 -48.0 -40.0 -24.0 6.0 24.0 36.0 49.0 33.0 26.0 29.0 -5.0 -29.0 -30.0 -52.0 -55.0 -30.0 -8.0 3.0 -22.0 -29.0 4.0 15.0 22.0 26.0 25.0 40.0 46.0 36.0 12.0 0.0 -2.0 -8.0 -5.0 -5.0 3.0 13.0 -1.0 -9.0 -14.0 -18.0 -10.0 -13.0 -15.0 -8.0 -6.0 4.0 5.0 3.0 13.0 18.0 21.0 19.0 7.0 -2.0 -16.0 -16.0 -3.0 -7.0 -13.0 -8.0 -3.0 -5.0 -10.0 0.0 2.0 -5.0 0.0 -4.0 -4.0 4.0 3.0 1.0 3.0 -3.0 -5.0 3.0 5.0 4.0 7.0 1.0 0.0 4.0 4.0 4.0 3.0 2.0 4.0 3.0 0.0 0.0 2.0 2.0 0.0 -1.0 -2.0 -2.0 -6.0 -12.0 -5.0 4.0 0.0 1.0 3.0 0.0 1.0 -1.0 -1.0 -3.0 -6.0 -1.0 -9.0 -12.0 5.0 16.0 22.0 20.0 13.0 9.0 12.0 26.0 19.0 -19.0 -36.0 -6.0 25.0 -3.0 -54.0 -64.0 -66.0 -69.0 -51.0 -26.0 4.0 32.0 52.0 62.0 64.0 63.0 52.0 37.0 15.0 1.0 6.0 2.0 -3.0 -3.0 -11.0 -12.0 -8.0 -16.0 -19.0 -13.0 -14.0 -13.0 -14.0 -13.0 -10.0 -9.0 -7.0 -6.0 -11.0 -15.0 -13.0 -3.0 0.0 -2.0 5.0 9.0 3.0 7.0 8.0 11.0 18.0 9.0 0.0 3.0 2.0 0.0 3.0 1.0 0.0 2.0 -1.0 -1.0 2.0 2.0 2.0 0.0 0.0 3.0 0.0 -1.0 0.0 0.0 1.0 3.0 0.0 0.0 0.0 0.0 6.0 11.0 8.0 8.0 7.0 3.0 2.0 -7.0 -21.0 -32.0 -39.0 -35.0 -35.0 -28.0 -16.0 -24.0 -16.0 9.0 38.0 60.0 55.0 46.0 40.0 21.0 5.0 6.0 0.0 -7.0 1.0 0.0 0.0 2.0 -1.0 -3.0 -5.0 -2.0 0.0 -1.0 3.0 6.0 3.0 1.0 1.0 -1.0 -1.0 -4.0 -13.0 -12.0 -9.0 -13.0 -15.0 -13.0 -11.0 -9.0 -7.0 -11.0 -16.0 -8.0 -3.0 -8.0 0.0 4.0 -4.0 -4.0 3.0 5.0 1.0 3.0 4.0 4.0 6.0 4.0 3.0 -1.0 -2.0 9.0 7.0 1.0 6.0 4.0 6.0 7.0 5.0 6.0 8.0 10.0 0.0 0.0 9.0 14.0 13.0 9.0 -1.0 -11.0 -12.0 -4.0 -4.0 -7.0 -8.0 -9.0 0.0 11.0 10.0 -10.0 -41.0 -52.0 -45.0 -44.0 -26.0 0.0 18.0 34.0 33.0 30.0 38.0 31.0 25.0 24.0 14.0 5.0 3.0 8.0 11.0 4.0 0.0 5.0 -2.0 -8.0 -3.0 -9.0 -9.0 -7.0 -7.0 -5.0 -7.0 -5.0 -1.0 -2.0 -5.0 -6.0 -3.0 -2.0 -4.0 -5.0 -3.0 1.0 4.0 -4.0 -5.0 -2.0 -8.0 -5.0 -2.0 2.0 5.0 -5.0 -7.0 -4.0 -6.0 -3.0 -2.0 0.0 1.0 0.0 1.0 0.0 0.0 0.0 0.0 -2.0 -6.0 -11.0 -10.0 -12.0 -12.0 0.0 3.0 0.0 10.0 14.0 12.0 10.0 17.0 27.0 20.0 15.0 10.0 -2.0 -3.0 -2.0 -9.0 -6.0 -5.0 -13.0 -12.0 1.0 13.0 20.0 16.0 7.0 -2.0 -11.0 -17.0 -15.0 -3.0 0.0 -6.0 -2.0 8.0 7.0 5.0 5.0 2.0 3.0 8.0 14.0 12.0 7.0 3.0 -1.0 3.0 -2.0 -15.0 -11.0 -9.0 -8.0 -9.0 -16.0 -17.0 -16.0 -7.0 4.0 14.0 8.0 -2.0 -1.0 -1.0 -2.0 -3.0 -4.0 -2.0 -4.0 -2.0 0.0 -2.0 1.0 2.0 0.0 -1.0 -1.0 1.0 3.0 2.0 1.0 2.0 2.0 1.0 1.0 0.0 0.0 0.0 0.0 -5.0 -10.0 -9.0 -7.0 -5.0 4.0 5.0 2.0 9.0 11.0 7.0 10.0 11.0 15.0 8.0 1.0 6.0 3.0 3.0 3.0 4.0 18.0 18.0 2.0 -12.0 -26.0 -25.0 -10.0 -1.0 6.0 3.0 -7.0 -11.0 -18.0 -17.0 -3.0 3.0 -4.0 -6.0 6.0 11.0 4.0 0.0 -5.0 0.0 0.0 4.0 8.0 1.0 4.0 6.0 4.0 6.0 7.0 13.0 7.0 -4.0 -1.0 -2.0 -7.0 -4.0 -6.0 -10.0 -3.0 -7.0 -12.0 0.0 -5.0 -13.0 -7.0 -8.0 0.0 4.0 -4.0 0.0 8.0 7.0 10.0 9.0 10.0 17.0 14.0 10.0 5.0 -3.0 -4.0 -6.0 -11.0 -13.0 -13.0 -8.0 -1.0 3.0 2.0 -3.0 -2.0 10.0 14.0 0.0 0.0 1.0 -7.0 -6.0 0.0 -2.0 -4.0 4.0 3.0 0.0 4.0 0.0 -2.0 -2.0 7.0 8.0 0.0 2.0 -2.0 -2.0 2.0 1.0 2.0 -1.0 -1.0 -1.0 -5.0 -6.0 -12.0 -6.0 0.0 -3.0 11.0 15.0 6.0 15.0 6.0 -7.0 0.0 -2.0 -6.0 -9.0 -11.0 -2.0 -1.0 -2.0 2.0 5.0 7.0 0.0 1.0 6.0 -5.0 -3.0 0.0 0.0 8.0 1.0 -8.0 -5.0 -7.0 -12.0 -16.0 -12.0 -3.0 -8.0 -10.0 -2.0 1.0 4.0 2.0 4.0 4.0 4.0 10.0 7.0 10.0 10.0 4.0 8.0 8.0 6.0 7.0 8.0 16.0 15.0 0.0 -4.0 0.0 -1.0 -5.0 -5.0 -7.0 -12.0 -11.0 -6.0 -6.0 -4.0 -2.0 -1.0 3.0 -4.0 -5.0 3.0 4.0 5.0 5.0 3.0 5.0 9.0 7.0 -2.0 -6.0 3.0 6.0 -2.0 -5.0 -1.0 -2.0 -3.0 -4.0 -7.0 -3.0 2.0 10.0 8.0 3.0 3.0 -2.0 -12.0 -12.0 -8.0 -14.0 -20.0 -18.0 -12.0 -3.0 4.0 5.0 2.0 2.0 0.0 -7.0 -7.0 -4.0 1.0 13.0 18.0 17.0 13.0 16.0 12.0 1.0 0.0 -2.0 -7.0 -8.0 -6.0 3.0 0.0 -4.0 -6.0 -8.0 -3.0 5.0 3.0 -5.0 2.0 9.0 6.0 7.0 8.0 8.0 7.0 7.0 7.0 3.0 1.0 1.0 -1.0 -8.0 -14.0 -10.0 -6.0 -3.0 0.0 -7.0 -1.0 9.0 4.0 3.0 4.0 1.0 5.0 4.0 2.0 1.0 1.0 1.0 -1.0 -2.0 0.0 0.0 4.0 5.0 -5.0 -7.0 -1.0 -4.0 -6.0 -7.0 -6.0 -10.0 -12.0 1.0 2.0 0.0 5.0 -1.0 -3.0 1.0 -2.0 -5.0 -3.0 0.0 -2.0 -1.0 0.0 0.0 -4.0 -8.0 0.0 2.0 0.0 1.0 -1.0 0.0 2.0 -4.0 -8.0 -5.0 -1.0 -2.0 2.0 10.0 8.0 5.0 5.0 5.0 4.0 6.0 9.0 8.0 8.0 11.0 7.0 6.0 1.0 -1.0 3.0 -2.0 -8.0 -16.0 -12.0 6.0 3.0 0.0 2.0 -1.0 1.0 4.0 9.0 9.0 -1.0 -7.0 -4.0 -3.0 -6.0 -9.0 -9.0 -12.0 -12.0 -6.0 -10.0 -13.0 -4.0 -2.0 1.0 -2.0 -5.0 5.0 9.0 16.0 19.0 12.0 16.0 10.0 -3.0 0.0 0.0 -4.0 -4.0 -11.0 -6.0 3.0 -2.0 -5.0 2.0 4.0 3.0 8.0 5.0 -1.0 -3.0 5.0 4.0 -6.0 -3.0 -5.0 0.0 2.0 -1.0 2.0 -2.0 0.0 2.0 -3.0 -4.0 -5.0 0.0 1.0 -1.0 3.0 -3.0 -6.0 4.0 3.0 0.0 1.0 0.0 1.0 1.0 0.0 1.0 0.0 1.0 4.0 3.0 3.0 3.0 4.0 6.0 0.0 -3.0 0.0 -3.0 -2.0 -3.0 -2.0 -3.0 -5.0 -7.0 -17.0 -10.0 0.0 -6.0 0.0 1.0 -7.0 5.0 7.0 2.0 5.0 1.0 2.0 2.0 6.0 13.0 1.0 -3.0 0.0 -7.0 -7.0 2.0 2.0 -1.0 0.0 -2.0 -9.0 -2.0 6.0 3.0 3.0 4.0 1.0 3.0 2.0 2.0 5.0 10.0 15.0 7.0 0.0 4.0 -3.0 -6.0 -2.0 -7.0 -6.0 -9.0 -11.0 1.0 -7.0 -13.0 4.0 0.0 -5.0 1.0 -6.0 -7.0 0.0 -6.0 -8.0 1.0 6.0 5.0 4.0 4.0 4.0 5.0 7.0 7.0 5.0 3.0 2.0 0.0 -3.0 -3.0 -1.0 -1.0 3.0 5.0 0.0 2.0 3.0 0.0 0.0 0.0 1.0 1.0 1.0 -4.0 -7.0 3.0 1.0 -2.0 2.0 2.0 3.0 3.0 3.0 3.0 -2.0 -2.0 0.0 -2.0 -3.0 -2.0 -3.0 0.0 0.0 -3.0 -4.0 -3.0 -2.0 -2.0 -2.0 -2.0 -2.0 -5.0 -10.0 -10.0 -1.0 4.0 4.0 2.0 2.0 1.0 -2.0 -3.0 2.0 4.0 2.0 6.0 4.0 9.0 11.0 0.0 5.0 13.0 2.0 -5.0 -3.0 -4.0 -7.0 -9.0 -10.0 -3.0 0.0 -2.0 0.0 -7.0 -13.0 -3.0 7.0 6.0 5.0 11.0 10.0 2.0 3.0 7.0 0.0 -4.0 0.0 -3.0 0.0 0.0 -1.0 -1.0 -5.0 -5.0 -7.0 -14.0 -13.0 -10.0 -7.0 -5.0 -4.0 0.0 -1.0 -1.0 1.0 0.0 2.0 3.0 1.0 2.0 4.0 11.0 21.0 18.0 11.0 12.0 11.0 8.0 8.0 6.0 7.0 6.0 3.0 6.0 6.0 -2.0 2.0 10.0 -6.0 -18.0 -8.0 -3.0 1.0 12.0 -1.0 -21.0 -22.0 -22.0 -19.0 -8.0 2.0 3.0 0.0 1.0 2.0 1.0 0.0 0.0 7.0 13.0 11.0 9.0 8.0 0.0 -21.0 -37.0 -34.0 -19.0 -1.0 7.0 3.0 4.0 3.0 0.0 0.0 -5.0 -12.0 -7.0 1.0 4.0 2.0 6.0 9.0 11.0 17.0 17.0 29.0 28.0 11.0 4.0 -23.0 -41.0 -31.0 -20.0 -11.0 -10.0 3.0 11.0 2.0 11.0 12.0 7.0 15.0 10.0 5.0 4.0 -2.0 -5.0 0.0 8.0 7.0 6.0 17.0 30.0 26.0 -1.0 -34.0 -35.0 -12.0 -4.0 0.0 2.0 -4.0 0.0 3.0 -8.0 -22.0 -24.0 -13.0 -4.0 0.0 7.0 17.0 14.0 4.0 1.0 2.0 2.0 6.0 10.0 0.0 -2.0 5.0 4.0 1.0 3.0 5.0 7.0 6.0 7.0 8.0 -3.0 -10.0 -8.0 3.0 15.0 10.0 7.0 3.0 -6.0 -11.0 -13.0 -16.0 -18.0 -9.0 -6.0 -2.0 14.0 9.0 1.0 4.0 -3.0 -19.0 -33.0 -37.0 -30.0 -16.0 1.0 16.0 23.0 23.0 18.0 16.0 12.0 0.0 4.0 27.0 23.0 11.0 0.0 -45.0 -63.0 -50.0 -62.0 -66.0 -53.0 -23.0 21.0 44.0 53.0 64.0 63.0 53.0 44.0 38.0 32.0 22.0 9.0 6.0 4.0 -1.0 -7.0 -16.0 -14.0 -9.0 -13.0 -13.0 -17.0 -19.0 -7.0 -9.0 -14.0 -7.0 -16.0 -16.0 -6.0 -10.0 -7.0 -1.0 -1.0 1.0 6.0 13.0 12.0 7.0 12.0 17.0 8.0 3.0 5.0 0.0 0.0 0.0 -3.0 -1.0 0.0 3.0 7.0 10.0 5.0 0.0 4.0 -3.0 -5.0 -1.0 -6.0 -6.0 -13.0 -15.0 -3.0 -6.0 -6.0 -14.0 -34.0 -17.0 2.0 1.0 18.0 25.0 30.0 53.0 59.0 31.0 -34.0 -76.0 -68.0 -48.0 -12.0 8.0 10.0 10.0 -8.0 -26.0 -16.0 5.0 17.0 30.0 29.0 20.0 17.0 4.0 4.0 7.0 -1.0 2.0 2.0 -5.0 -6.0 3.0 7.0 4.0 5.0 2.0 -2.0 -1.0 6.0 13.0 3.0 -4.0 -2.0 1.0 7.0 4.0 -4.0 -10.0 -10.0 -13.0 -17.0 -4.0 1.0 -2.0 1.0 4.0 10.0 10.0 3.0 -3.0 -26.0 -48.0 -49.0 -38.0 -23.0 -8.0 2.0 9.0 11.0 12.0 27.0 34.0 19.0 15.0 27.0 28.0 22.0 24.0 30.0 21.0 2.0 -7.0 -8.0 0.0 5.0 -4.0 -19.0 -27.0 -26.0 -18.0 -7.0 3.0 -4.0 -22.0 -18.0 0.0 8.0 8.0 12.0 21.0 27.0 14.0 1.0 4.0 4.0 -5.0 -12.0 -10.0 -1.0 11.0 13.0 -7.0 -18.0 -14.0 -20.0 -28.0 -22.0 -22.0 -25.0 -10.0 -12.0 -15.0 3.0 -7.0 -10.0 12.0 21.0 33.0 33.0 31.0 42.0 37.0 44.0 44.0 21.0 11.0 -22.0 -64.0 -73.0 -63.0 -43.0 -35.0 -28.0 -10.0 -2.0 13.0 29.0 30.0 35.0 33.0 24.0 17.0 4.0 3.0 11.0 13.0 14.0 11.0 12.0 10.0 6.0 10.0 7.0 -11.0 -27.0 -35.0 -35.0 -27.0 -17.0 2.0 -1.0 -18.0 -7.0 -1.0 5.0 4.0 -8.0 -4.0 0.0 15.0 42.0 52.0 44.0 24.0 17.0 16.0 -3.0 -19.0 -24.0 -46.0 -54.0 -60.0 -83.0 -53.0 -7.0 8.0 33.0 44.0 38.0 23.0 -7.0 -20.0 -5.0 12.0 8.0 -1.0 4.0 9.0 14.0 18.0 27.0 53.0 52.0 26.0 15.0 -3.0 -28.0 -36.0 -34.0 -22.0 -33.0 -76.0 -66.0 -11.0 11.0 29.0 53.0 60.0 62.0 56.0 50.0 39.0 16.0 2.0 -20.0 -44.0 -45.0 -44.0 -51.0 -46.0 -35.0 -30.0 -16.0 4.0 10.0 -3.0 -17.0 -10.0 15.0 28.0 20.0 12.0 13.0 19.0 17.0 13.0 30.0 39.0 22.0 6.0 4.0 9.0 5.0 -14.0 -37.0 -58.0 -96.0 -139.0 -131.0 -85.0 -36.0 20.0 34.0 40.0 90.0 100.0 97.0 100.0 72.0 54.0 49.0 38.0 24.0 0.0 -14.0 -10.0 -9.0 -10.0 4.0 26.0 21.0 -28.0 -91.0 -97.0 -23.0 12.0 -13.0 -37.0 -66.0 -58.0 -49.0 -84.0 -71.0 -28.0 9.0 66.0 85.0 66.0 59.0 58.0 48.0 22.0 18.0 53.0 52.0 4.0 -21.0 -40.0 -46.0 -31.0 -17.0 9.0 18.0 20.0 33.0 48.0 57.0 47.0 39.0 32.0 -6.0 -88.0 -118.0 -55.0 -38.0 -49.0 -36.0 -27.0 -5.0 -22.0 -26.0 -3.0 -22.0 -9.0 7.0 1.0 15.0 11.0 20.0 20.0 -14.0 -10.0 3.0 3.0 18.0 38.0 56.0 50.0 27.0 -20.0 -51.0 -21.0 12.0 77.0 139.0 106.0 19.0 -73.0 -114.0 -77.0 -46.0 -47.0 -56.0 -73.0 -63.0 -30.0 2.0 43.0 67.0 80.0 80.0 65.0 74.0 76.0 1.0 -83.0 -72.0 -46.0 -44.0 -28.0 -8.0 30.0 40.0 15.0 6.0 9.0 0.0 -6.0 15.0 35.0 39.0 20.0 0.0 0.0 -13.0 -46.0 -59.0 -41.0 -24.0 -17.0 10.0 56.0 81.0 49.0 -8.0 -56.0 -94.0 -90.0 -64.0 -13.0 50.0 44.0 1.0 -42.0 -58.0 -35.0 -53.0 -65.0 -32.0 8.0 72.0 123.0 134.0 100.0 58.0 57.0 31.0 29.0 43.0 -2.0 -29.0 -75.0 -112.0 -105.0 -118.0 -74.0 -9.0 35.0 75.0 66.0 67.0 77.0 -7.0 -107.0 -61.0 -26.0 -113.0 -95.0 47.0 78.0 -1.0 26.0 113.0 130.0 140.0 146.0 97.0 -7.0 -55.0 -3.0 27.0 47.0 68.0 14.0 -108.0 -198.0 -169.0 -102.0 -107.0 -85.0 9.0 52.0 58.0 82.0 99.0 97.0 36.0 -34.0 -78.0 -126.0 -136.0 -81.0 3.0 54.0 54.0 49.0 37.0 5.0 -23.0 -23.0 -25.0 -46.0 -31.0 6.0 18.0 24.0 29.0 30.0 30.0 31.0 50.0 56.0 39.0 19.0 -23.0 -86.0 -104.0 -35.0 32.0 29.0 9.0 -15.0 -33.0 -61.0 -73.0 0.0 52.0 20.0 -18.0 -31.0 -15.0 57.0 142.0 144.0 92.0 -1.0 -138.0 -169.0 -67.0 6.0 27.0 33.0 28.0 44.0 67.0 93.0 100.0 64.0 32.0 21.0 9.0 -62.0 -103.0 -54.0 -34.0 -19.0 -18.0 -45.0 -44.0 -65.0 -76.0 -19.0 31.0 49.0 95.0 107.0 24.0 -70.0 -116.0 -53.0 40.0 55.0 62.0 59.0 45.0 34.0 27.0 55.0 49.0 22.0 -24.0 -159.0 -255.0 -186.0 -66.0 -12.0 27.0 36.0 -18.0 -24.0 32.0 58.0 62.0 86.0 99.0 61.0 -21.0 -119.0 -165.0 -146.0 -100.0 13.0 100.0 68.0 43.0 19.0 0.0 67.0 117.0 103.0 104.0 93.0 61.0 48.0 32.0 0.0 -27.0 -27.0 8.0 64.0 99.0 65.0 -10.0 -116.0 -244.0 -239.0 -86.0 29.0 73.0 104.0 97.0 33.0 -38.0 -67.0 -42.0 -31.0 -78.0 -107.0 -101.0 -69.0 -37.0 -33.0 6.0 42.0 21.0 1.0 -10.0 -22.0 -29.0 -23.0 20.0 74.0 97.0 92.0 77.0 65.0 71.0 85.0 90.0 98.0 100.0 85.0 67.0 44.0 23.0 -15.0 -62.0 -116.0 -239.0 -299.0 -145.0 19.0 14.0 -43.0 -90.0 -132.0 -129.0 -118.0 -65.0 20.0 29.0 28.0 75.0 119.0 145.0 149.0 141.0 133.0 102.0 51.0 44.0 79.0 59.0 15.0 0.0 -47.0 -63.0 -26.0 -27.0 -39.0 -9.0 53.0 75.0 46.0 2.0 -116.0 -275.0 -304.0 -170.0 -58.0 -9.0 46.0 23.0 -6.0 25.0 31.0 35.0 61.0 92.0 123.0 122.0 118.0 143.0 126.0 49.0 -16.0 -101.0 -220.0 -241.0 -105.0 19.0 21.0 33.0 65.0 51.0 70.0 107.0 101.0 82.0 68.0 47.0 -37.0 -143.0 -138.0 -77.0 -62.0 -42.0 -7.0 19.0 33.0 24.0 6.0 -21.0 -41.0 -75.0 -122.0 -91.0 -30.0 -15.0 -2.0 4.0 27.0 62.0 46.0 39.0 40.0 25.0 38.0 33.0 32.0 90.0 164.0 177.0 127.0 65.0 -59.0 -216.0 -238.0 -137.0 -74.0 -85.0 -99.0 -65.0 20.0 102.0 106.0 70.0 54.0 -11.0 -76.0 -57.0 -40.0 -28.0 -6.0 7.0 41.0 38.0 11.0 -10.0 -45.0 -22.0 28.0 54.0 100.0 167.0 201.0 162.0 102.0 50.0 -20.0 -69.0 -107.0 -144.0 -138.0 -116.0 -92.0 -77.0 -57.0 -1.0 25.0 19.0 41.0 61.0 35.0 29.0 63.0 57.0 6.0 -36.0 -61.0 -46.0 -8.0 3.0 11.0 -13.0 -74.0 -55.0 -18.0 -80.0 -112.0 -18.0 85.0 115.0 90.0 36.0 10.0 -17.0 -98.0 -91.0 13.0 49.0 25.0 14.0 11.0 -2.0 -16.0 -5.0 27.0 22.0 -1.0 8.0 22.0 23.0 16.0 36.0 37.0 -20.0 -42.0 -29.0 0.0 3.0 -28.0 14.0 105.0 157.0 157.0 112.0 12.0 -125.0 -186.0 -132.0 -46.0 15.0 1.0 -52.0 -59.0 -50.0 -39.0 -21.0 -33.0 -43.0 -13.0 58.0 113.0 130.0 103.0 15.0 4.0 9.0 -62.0 -53.0 -25.0 -20.0 12.0 10.0 -14.0 -44.0 -51.0 -24.0 -5.0 15.0 60.0 91.0 83.0 77.0 60.0 26.0 4.0 -16.0 -46.0 -103.0 -168.0 -155.0 -73.0 -38.0 -19.0 1.0 1.0 77.0 151.0 137.0 110.0 74.0 30.0 -21.0 -57.0 -59.0 -84.0 -123.0 -123.0 -82.0 -26.0 18.0 36.0 30.0 34.0 38.0 17.0 36.0 77.0 60.0 45.0 53.0 18.0 -7.0 39.0 61.0 19.0 -15.0 -39.0 -36.0 -30.0 -41.0 -33.0 -43.0 -13.0 62.0 98.0 102.0 71.0 -4.0 -124.0 -239.0 -228.0 -87.0 -3.0 -37.0 -64.0 -75.0 -54.0 2.0 14.0 47.0 97.0 75.0 56.0 101.0 149.0 125.0 75.0 97.0 127.0 78.0 29.0 1.0 -56.0 -84.0 -61.0 -46.0 -51.0 -41.0 -30.0 -46.0 -27.0 29.0 63.0 57.0 19.0 -38.0 -86.0 -75.0 -51.0 -48.0 -51.0 -50.0 -26.0 -26.0 -42.0 -36.0 -43.0 -33.0 20.0 55.0 60.0 65.0 70.0 71.0 46.0 15.0 14.0 9.0 8.0 31.0 19.0 -3.0 2.0 -31.0 -71.0 -46.0 -12.0 4.0 53.0 84.0 65.0 60.0 44.0 -19.0 -84.0 -95.0 -47.0 -27.0 -87.0 -89.0 -29.0 -44.0 -35.0 10.0 19.0 70.0 119.0 115.0 104.0 77.0 40.0 11.0 -12.0 -24.0 -39.0 -35.0 0.0 6.0 -25.0 -67.0 -80.0 -40.0 -23.0 -3.0 52.0 34.0 -1.0 28.0 29.0 3.0 13.0 40.0 34.0 -42.0 -112.0 -134.0 -145.0 -135.0 -74.0 40.0 92.0 77.0 90.0 81.0 53.0 52.0 40.0 4.0 6.0 55.0 69.0 44.0 3.0 -40.0 -44.0 -44.0 -42.0 -22.0 -10.0 0.0 0.0 2.0 34.0 61.0 32.0 -16.0 -4.0 -24.0 -74.0 -52.0 -18.0 7.0 17.0 5.0 7.0 -7.0 -30.0 -10.0 17.0 6.0 -7.0 -2.0 -6.0 -33.0 -62.0 -41.0 -15.0 -9.0 28.0 54.0 62.0 84.0 53.0 -3.0 2.0 11.0 -14.0 -16.0 -3.0 16.0 28.0 10.0 -29.0 -82.0 -113.0 -103.0 -58.0 14.0 100.0 129.0 77.0 28.0 -3.0 -32.0 -19.0 14.0 11.0 1.0 8.0 -17.0 -64.0 -71.0 -18.0 23.0 9.0 14.0 28.0 26.0 42.0 52.0 61.0 71.0 54.0 34.0 24.0 21.0 15.0 -7.0 -47.0 -94.0 -118.0 -116.0 -97.0 -59.0 -27.0 -29.0 -36.0 -20.0 -16.0 -9.0 5.0 8.0 34.0 45.0 44.0 78.0 91.0 75.0 54.0 24.0 3.0 -13.0 -26.0 -24.0 -20.0 -26.0 -22.0 -15.0 -18.0 -5.0 12.0 17.0 19.0 23.0 2.0 -32.0 -17.0 0.0 -9.0 0.0 7.0 4.0 -17.0 -43.0 -45.0 -39.0 -19.0 -5.0 13.0 45.0 39.0 26.0 21.0 14.0 23.0 27.0 13.0 -10.0 -20.0 7.0 29.0 19.0 21.0 21.0 -1.0 -3.0 22.0 29.0 3.0 -16.0 -21.0 -32.0 -46.0 -36.0 -18.0 -12.0 5.0 6.0 -15.0 -15.0 -5.0 2.0 0.0 -11.0 -14.0 -16.0 -14.0 -3.0 0.0 -3.0 6.0 18.0 21.0 32.0 37.0 21.0 7.0 6.0 0.0 